  1.1410000e+000
  1.0610000e+000
  1.0130000e+000
  1.1120000e+000
  1.1230000e+000
  1.0190000e+000
  1.0760000e+000
  1.1750000e+000
  1.0390000e+000
  1.0290000e+000
  1.1460000e+000
  1.0660000e+000
  1.0140000e+000
  1.1200000e+000
  1.1250000e+000
  1.0220000e+000
  1.0710000e+000
  1.1600000e+000
  1.0540000e+000
  1.0590000e+000
  1.1940000e+000
  1.0950000e+000
  1.0240000e+000
  1.1160000e+000
  1.1170000e+000
  1.0180000e+000
  1.0670000e+000
  1.1410000e+000
  1.0280000e+000
  1.0270000e+000
  1.1490000e+000
  1.0770000e+000
  1.0150000e+000
  1.0980000e+000
  1.1100000e+000
  1.0140000e+000
  1.0790000e+000
  1.1760000e+000
  1.0430000e+000
  1.0320000e+000
  1.1550000e+000
  1.0790000e+000
  1.0290000e+000
  1.1300000e+000
  1.1200000e+000
  1.0040000e+000
  1.0440000e+000
  1.1170000e+000
  1.0070000e+000
  1.0180000e+000
  1.1520000e+000
  1.0710000e+000
  1.0220000e+000
  1.1100000e+000
  1.1080000e+000
  1.0220000e+000
  1.0790000e+000
  1.1640000e+000
  1.0490000e+000
  1.0400000e+000
  1.1430000e+000
  1.0640000e+000
  1.0080000e+000
  1.1080000e+000
  1.1370000e+000
  1.0420000e+000
  1.0980000e+000
  1.1810000e+000
  1.0480000e+000
  1.0640000e+000
  1.2140000e+000
  1.1100000e+000
  1.0400000e+000
  1.1650000e+000
  1.1500000e+000
  1.0170000e+000
  1.0560000e+000
  1.1210000e+000
  9.9100000e-001
  9.8100000e-001
  1.1020000e+000
  1.0340000e+000
  9.8900000e-001
  1.0880000e+000
  1.0680000e+000
  9.7400000e-001
  1.0240000e+000
  1.0980000e+000
  9.9000000e-001
  9.9400000e-001
  1.1160000e+000
  1.0400000e+000
  1.0080000e+000
  1.1280000e+000
  1.1850000e+000
  1.1540000e+000
  1.4220000e+000
  1.7160000e+000
  1.6500000e+000
  1.6320000e+000
  1.6660000e+000
  1.3330000e+000
  1.0580000e+000
  1.0440000e+000
  1.0000000e+000
  8.9500000e-001
  9.1000000e-001
  9.5300000e-001
  8.7000000e-001
  8.8500000e-001
  9.8000000e-001
  9.2500000e-001
  8.7600000e-001
  9.5900000e-001
  9.8000000e-001
  9.1900000e-001
  9.7100000e-001
  1.0420000e+000
  9.5100000e-001
  9.5500000e-001
  1.0560000e+000
  1.0020000e+000
  9.6900000e-001
  1.0640000e+000
  1.0760000e+000
  9.9500000e-001
  1.0520000e+000
  1.1430000e+000
  1.0240000e+000
  1.0140000e+000
  1.1300000e+000
  1.0570000e+000
  1.0070000e+000
  1.1110000e+000
  1.1170000e+000
  1.0230000e+000
  1.1050000e+000
  1.2060000e+000
  1.0710000e+000
  1.0720000e+000
  1.2130000e+000
  1.1230000e+000
  1.0640000e+000
  1.2000000e+000
  1.2150000e+000
  1.0860000e+000
  1.1510000e+000
  1.2690000e+000
  1.1030000e+000
  1.0890000e+000
  1.2160000e+000
  1.1050000e+000
  1.0270000e+000
  1.1430000e+000
  1.1500000e+000
  1.0220000e+000
  1.0690000e+000
  1.1420000e+000
  1.0090000e+000
  9.9100000e-001
  1.0790000e+000
  1.0080000e+000
  9.3600000e-001
  9.9900000e-001
  1.0020000e+000
  9.1600000e-001
  9.5500000e-001
  1.0230000e+000
  9.3700000e-001
  9.3100000e-001
  1.0130000e+000
  9.5500000e-001
  9.2900000e-001
  1.0240000e+000
  1.0370000e+000
  9.6600000e-001
  1.0140000e+000
  1.0840000e+000
  9.8100000e-001
  9.9000000e-001
  1.1130000e+000
  1.0380000e+000
  9.9300000e-001
  1.0870000e+000
  1.0910000e+000
  9.9600000e-001
  1.0470000e+000
  1.1280000e+000
  1.0070000e+000
  1.0030000e+000
  1.1380000e+000
  1.0710000e+000
  1.0190000e+000
  1.1270000e+000
  1.1220000e+000
  1.0220000e+000
  1.0840000e+000
  1.1700000e+000
  1.0450000e+000
  1.0400000e+000
  1.1690000e+000
  1.0790000e+000
  1.0240000e+000
  1.1260000e+000
  1.1230000e+000
  1.0190000e+000
  1.0710000e+000
  1.1520000e+000
  1.0320000e+000
  1.0320000e+000
  1.1400000e+000
  1.0640000e+000
  1.0190000e+000
  1.1300000e+000
  1.1250000e+000
  1.0390000e+000
  1.1000000e+000
  1.1670000e+000
  1.0280000e+000
  1.0290000e+000
  1.1640000e+000
  1.0770000e+000
  1.0180000e+000
  1.1110000e+000
  1.1080000e+000
  1.0090000e+000
  1.0740000e+000
  1.1540000e+000
  1.0270000e+000
  1.0330000e+000
  1.1560000e+000
  1.0730000e+000
  1.0100000e+000
  1.1010000e+000
  1.1020000e+000
  9.9900000e-001
  1.0580000e+000
  1.1470000e+000
  1.0290000e+000
  1.0350000e+000
  1.1750000e+000
  1.0910000e+000
  1.0280000e+000
  1.1350000e+000
  1.1220000e+000
  1.0240000e+000
  1.0880000e+000
  1.2050000e+000
  1.0740000e+000
  1.0660000e+000
  1.1950000e+000
  1.1060000e+000
  1.0450000e+000
  1.1400000e+000
  1.1280000e+000
  1.0150000e+000
  1.0680000e+000
  1.1470000e+000
  1.0170000e+000
  9.9900000e-001
  1.1130000e+000
  1.0370000e+000
  9.9400000e-001
  1.0710000e+000
  1.0710000e+000
  9.6600000e-001
  1.0120000e+000
  1.1060000e+000
  1.0030000e+000
  1.0030000e+000
  1.1020000e+000
  1.0350000e+000
  9.8600000e-001
  1.0780000e+000
  1.1070000e+000
  1.0320000e+000
  1.1350000e+000
  1.3410000e+000
  1.3800000e+000
  1.5470000e+000
  1.7580000e+000
  1.5810000e+000
  1.3260000e+000
  1.2260000e+000
  1.0680000e+000
  9.2700000e-001
  9.5800000e-001
  1.0070000e+000
  9.0600000e-001
  8.9500000e-001
  9.8000000e-001
  9.2600000e-001
  8.9200000e-001
  9.7100000e-001
  9.7300000e-001
  9.1400000e-001
  9.7600000e-001
  1.0470000e+000
  9.6000000e-001
  9.6600000e-001
  1.0770000e+000
  1.0180000e+000
  9.8400000e-001
  1.0890000e+000
  1.0910000e+000
  1.0020000e+000
  1.0500000e+000
  1.1230000e+000
  1.0080000e+000
  1.0170000e+000
  1.1310000e+000
  1.0610000e+000
  1.0250000e+000
  1.1370000e+000
  1.1320000e+000
  1.0270000e+000
  1.1050000e+000
  1.2040000e+000
  1.0690000e+000
  1.0820000e+000
  1.2340000e+000
  1.1270000e+000
  1.0610000e+000
  1.1920000e+000
  1.2100000e+000
  1.0980000e+000
  1.1770000e+000
  1.2670000e+000
  1.1130000e+000
  1.1170000e+000
  1.2680000e+000
  1.1700000e+000
  1.0910000e+000
  1.1820000e+000
  1.1490000e+000
  1.0340000e+000
  1.0770000e+000
  1.1400000e+000
  1.0130000e+000
  9.9900000e-001
  1.0760000e+000
  9.7300000e-001
  9.1900000e-001
  9.9000000e-001
  9.7600000e-001
  9.0600000e-001
  9.4500000e-001
  9.9600000e-001
  9.1200000e-001
  9.2000000e-001
  1.0140000e+000
  9.5400000e-001
  9.2100000e-001
  1.0130000e+000
  1.0150000e+000
  9.3600000e-001
  9.8500000e-001
  1.0520000e+000
  9.6100000e-001
  9.7600000e-001
  1.0710000e+000
  1.0030000e+000
  9.7500000e-001
  1.0780000e+000
  1.0930000e+000
  9.9500000e-001
  1.0480000e+000
  1.1260000e+000
  1.0240000e+000
  1.0150000e+000
  1.1360000e+000
  1.0770000e+000
  1.0300000e+000
  1.1370000e+000
  1.1280000e+000
  1.0280000e+000
  1.0880000e+000
  1.1560000e+000
  1.0330000e+000
  1.0490000e+000
  1.1760000e+000
  1.0840000e+000
  1.0190000e+000
  1.1230000e+000
  1.0950000e+000
  1.0140000e+000
  1.0890000e+000
  1.1810000e+000
  1.0440000e+000
  1.0450000e+000
  1.1650000e+000
  1.0660000e+000
  1.0120000e+000
  1.1170000e+000
  1.1130000e+000
  1.0280000e+000
  1.0890000e+000
  1.1760000e+000
  1.0370000e+000
  1.0270000e+000
  1.1270000e+000
  1.0620000e+000
  1.0200000e+000
  1.1160000e+000
  1.0960000e+000
  1.0080000e+000
  1.0710000e+000
  1.1490000e+000
  1.0270000e+000
  1.0370000e+000
  1.1710000e+000
  1.0710000e+000
  1.0120000e+000
  1.1120000e+000
  1.1030000e+000
  1.0040000e+000
  1.0670000e+000
  1.1560000e+000
  1.0430000e+000
  1.0400000e+000
  1.1520000e+000
  1.0780000e+000
  1.0330000e+000
  1.1380000e+000
  1.1330000e+000
  1.0290000e+000
  1.0830000e+000
  1.1700000e+000
  1.0520000e+000
  1.0710000e+000
  1.2110000e+000
  1.1100000e+000
  1.0490000e+000
  1.1460000e+000
  1.1180000e+000
  1.0220000e+000
  1.0860000e+000
  1.1540000e+000
  1.0200000e+000
  1.0120000e+000
  1.1210000e+000
  1.0380000e+000
  9.9300000e-001
  1.0640000e+000
  1.0520000e+000
  9.7800000e-001
  1.0280000e+000
  1.0880000e+000
  9.9100000e-001
  1.0020000e+000
  1.1160000e+000
  1.0390000e+000
  1.0000000e+000
  1.1020000e+000
  1.1150000e+000
  1.0300000e+000
  1.1460000e+000
  1.3700000e+000
  1.3780000e+000
  1.5230000e+000
  1.7330000e+000
  1.5440000e+000
  1.2990000e+000
  1.2190000e+000
  1.0560000e+000
  9.2600000e-001
  9.6500000e-001
  1.0100000e+000
  9.1100000e-001
  9.2400000e-001
  1.0130000e+000
  9.4500000e-001
  9.0600000e-001
  1.0020000e+000
  1.0090000e+000
  9.2500000e-001
  9.6100000e-001
  1.0200000e+000
  9.4200000e-001
  9.6600000e-001
  1.0890000e+000
  1.0190000e+000
  9.7300000e-001
  1.0670000e+000
  1.0730000e+000
  9.9500000e-001
  1.0490000e+000
  1.1230000e+000
  1.0120000e+000
  1.0280000e+000
  1.1460000e+000
  1.0580000e+000
  1.0170000e+000
  1.1270000e+000
  1.1170000e+000
  1.0280000e+000
  1.1030000e+000
  1.1910000e+000
  1.0570000e+000
  1.0730000e+000
  1.2100000e+000
  1.1110000e+000
  1.0590000e+000
  1.2030000e+000
  1.2130000e+000
  1.0870000e+000
  1.1510000e+000
  1.2430000e+000
  1.1010000e+000
  1.1180000e+000
  1.2700000e+000
  1.1570000e+000
  1.0810000e+000
  1.1790000e+000
  1.1650000e+000
  1.0540000e+000
  1.1050000e+000
  1.1370000e+000
  1.0070000e+000
  1.0020000e+000
  1.0840000e+000
  9.8900000e-001
  9.3500000e-001
  1.0030000e+000
  9.8000000e-001
  9.0300000e-001
  9.5100000e-001
  1.0050000e+000
  9.1200000e-001
  9.1500000e-001
  1.0040000e+000
  9.4000000e-001
  9.0600000e-001
  1.0000000e+000
  1.0100000e+000
  9.3600000e-001
  9.7800000e-001
  1.0300000e+000
  9.4700000e-001
  9.7500000e-001
  1.1010000e+000
  1.0300000e+000
  9.9000000e-001
  1.0970000e+000
  1.0910000e+000
  9.9800000e-001
  1.0530000e+000
  1.1170000e+000
  1.0040000e+000
  1.0200000e+000
  1.1330000e+000
  1.0450000e+000
  1.0090000e+000
  1.1280000e+000
  1.1250000e+000
  1.0300000e+000
  1.0810000e+000
  1.1300000e+000
  1.0190000e+000
  1.0530000e+000
  1.1860000e+000
  1.0690000e+000
  1.0350000e+000
  1.1650000e+000
  1.1230000e+000
  1.0280000e+000
  1.0830000e+000
  1.1400000e+000
  1.0190000e+000
  1.0330000e+000
  1.1570000e+000
  1.0570000e+000
  1.0090000e+000
  1.1200000e+000
  1.1120000e+000
  1.0130000e+000
  1.0730000e+000
  1.1620000e+000
  1.0450000e+000
  1.0480000e+000
  1.1590000e+000
  1.0540000e+000
  1.0140000e+000
  1.1130000e+000
  1.1020000e+000
  1.0200000e+000
  1.0820000e+000
  1.1360000e+000
  1.0190000e+000
  1.0380000e+000
  1.1570000e+000
  1.0570000e+000
  1.0140000e+000
  1.1360000e+000
  1.1200000e+000
  1.0190000e+000
  1.0790000e+000
  1.1460000e+000
  1.0200000e+000
  1.0230000e+000
  1.1450000e+000
  1.0580000e+000
  1.0230000e+000
  1.1330000e+000
  1.1110000e+000
  1.0050000e+000
  1.0740000e+000
  1.1770000e+000
  1.0490000e+000
  1.0680000e+000
  1.2040000e+000
  1.0830000e+000
  1.0330000e+000
  1.1360000e+000
  1.1310000e+000
  1.0440000e+000
  1.1160000e+000
  1.1820000e+000
  1.0490000e+000
  1.0530000e+000
  1.1740000e+000
  1.0680000e+000
  1.0030000e+000
  1.0950000e+000
  1.0680000e+000
  9.8300000e-001
  1.0450000e+000
  1.1060000e+000
  9.9900000e-001
  1.0130000e+000
  1.1150000e+000
  1.0280000e+000
  9.8900000e-001
  1.0840000e+000
  1.0730000e+000
  9.7900000e-001
  1.0240000e+000
  1.0740000e+000
  9.8500000e-001
  1.0190000e+000
  1.1540000e+000
  1.0830000e+000
  1.0950000e+000
  1.4090000e+000
  1.6130000e+000
  1.6180000e+000
  1.7200000e+000
  1.7110000e+000
  1.3520000e+000
  1.1310000e+000
  1.1000000e+000
  9.6100000e-001
  9.0500000e-001
  9.6600000e-001
  9.3400000e-001
  8.5700000e-001
  9.0200000e-001
  9.6400000e-001
  8.9500000e-001
  9.2000000e-001
  1.0130000e+000
  9.4900000e-001
  9.3100000e-001
  1.0320000e+000
  1.0190000e+000
  9.4200000e-001
  1.0040000e+000
  1.0690000e+000
  9.7500000e-001
  9.8800000e-001
  1.0980000e+000
  1.0230000e+000
  9.9400000e-001
  1.0970000e+000
  1.0980000e+000
  1.0180000e+000
  1.0720000e+000
  1.1260000e+000
  1.0150000e+000
  1.0330000e+000
  1.1520000e+000
  1.0560000e+000
  1.0140000e+000
  1.1360000e+000
  1.1270000e+000
  1.0440000e+000
  1.1230000e+000
  1.2190000e+000
  1.0840000e+000
  1.1020000e+000
  1.2380000e+000
  1.1260000e+000
  1.0860000e+000
  1.2160000e+000
  1.1910000e+000
  1.0820000e+000
  1.1620000e+000
  1.2340000e+000
  1.0740000e+000
  1.0770000e+000
  1.1960000e+000
  1.0760000e+000
  1.0280000e+000
  1.1380000e+000
  1.0930000e+000
  9.7800000e-001
  1.0150000e+000
  1.0620000e+000
  9.5800000e-001
  9.5800000e-001
  1.0430000e+000
  9.6300000e-001
  9.2100000e-001
  1.0120000e+000
  9.9600000e-001
  9.1500000e-001
  9.6800000e-001
  1.0200000e+000
  9.3400000e-001
  9.4100000e-001
  1.0440000e+000
  9.7800000e-001
  9.4000000e-001
  1.0400000e+000
  1.0320000e+000
  9.7100000e-001
  1.0370000e+000
  1.1170000e+000
  1.0080000e+000
  1.0140000e+000
  1.1310000e+000
  1.0490000e+000
  1.0090000e+000
  1.0930000e+000
  1.0710000e+000
  9.9100000e-001
  1.0540000e+000
  1.1160000e+000
  1.0170000e+000
  1.0320000e+000
  1.1590000e+000
  1.0530000e+000
  1.0250000e+000
  1.1600000e+000
  1.1360000e+000
  1.0420000e+000
  1.1200000e+000
  1.1670000e+000
  1.0420000e+000
  1.0560000e+000
  1.1670000e+000
  1.0540000e+000
  1.0170000e+000
  1.1360000e+000
  1.1130000e+000
  1.0080000e+000
  1.0660000e+000
  1.1260000e+000
  1.0200000e+000
  1.0450000e+000
  1.1720000e+000
  1.0720000e+000
  1.0320000e+000
  1.1360000e+000
  1.1260000e+000
  1.0400000e+000
  1.1020000e+000
  1.1420000e+000
  1.0140000e+000
  1.0250000e+000
  1.1400000e+000
  1.0500000e+000
  1.0240000e+000
  1.1350000e+000
  1.1050000e+000
  1.0020000e+000
  1.0640000e+000
  1.1420000e+000
  1.0270000e+000
  1.0390000e+000
  1.1820000e+000
  1.0730000e+000
  1.0120000e+000
  1.1250000e+000
  1.1150000e+000
  1.0180000e+000
  1.0930000e+000
  1.1700000e+000
  1.0330000e+000
  1.0340000e+000
  1.1350000e+000
  1.0430000e+000
  1.0080000e+000
  1.1230000e+000
  1.0930000e+000
  9.9500000e-001
  1.0520000e+000
  1.1230000e+000
  1.0280000e+000
  1.0560000e+000
  1.1900000e+000
  1.0770000e+000
  1.0330000e+000
  1.1610000e+000
  1.1520000e+000
  1.0470000e+000
  1.1150000e+000
  1.1910000e+000
  1.0470000e+000
  1.0500000e+000
  1.1380000e+000
  1.0480000e+000
  1.0200000e+000
  1.1400000e+000
  1.0980000e+000
  9.9100000e-001
  1.0470000e+000
  1.1100000e+000
  1.0030000e+000
  1.0070000e+000
  1.1060000e+000
  1.0180000e+000
  9.8400000e-001
  1.0830000e+000
  1.0580000e+000
  9.8100000e-001
  1.0470000e+000
  1.1010000e+000
  9.9600000e-001
  1.0030000e+000
  1.1160000e+000
  1.0690000e+000
  1.0780000e+000
  1.3130000e+000
  1.4830000e+000
  1.5560000e+000
  1.7470000e+000
  1.7920000e+000
  1.4800000e+000
  1.2720000e+000
  1.1800000e+000
  9.7500000e-001
  9.0500000e-001
  9.6300000e-001
  9.3100000e-001
  8.6800000e-001
  9.1500000e-001
  9.5900000e-001
  8.8100000e-001
  9.0200000e-001
  9.9800000e-001
  9.3700000e-001
  9.1100000e-001
  1.0020000e+000
  1.0000000e+000
  9.3400000e-001
  1.0030000e+000
  1.0530000e+000
  9.5600000e-001
  9.7400000e-001
  1.0770000e+000
  1.0070000e+000
  9.8300000e-001
  1.0980000e+000
  1.0880000e+000
  1.0070000e+000
  1.0670000e+000
  1.1230000e+000
  1.0300000e+000
  1.0660000e+000
  1.1900000e+000
  1.0760000e+000
  1.0340000e+000
  1.1410000e+000
  1.1250000e+000
  1.0390000e+000
  1.1160000e+000
  1.1810000e+000
  1.0610000e+000
  1.0980000e+000
  1.2310000e+000
  1.1020000e+000
  1.0760000e+000
  1.2240000e+000
  1.2040000e+000
  1.1080000e+000
  1.2090000e+000
  1.2650000e+000
  1.1000000e+000
  1.1080000e+000
  1.2300000e+000
  1.0980000e+000
  1.0450000e+000
  1.1410000e+000
  1.0920000e+000
  9.9000000e-001
  1.0240000e+000
  1.0470000e+000
  9.4100000e-001
  9.5300000e-001
  1.0420000e+000
  9.6400000e-001
  9.3000000e-001
  1.0150000e+000
  9.9500000e-001
  9.3500000e-001
  9.9000000e-001
  1.0300000e+000
  9.3400000e-001
  9.4900000e-001
  1.0430000e+000
  9.6900000e-001
  9.4500000e-001
  1.0490000e+000
  1.0400000e+000
  9.6800000e-001
  1.0180000e+000
  1.0710000e+000
  9.8600000e-001
  1.0150000e+000
  1.1280000e+000
  1.0320000e+000
  1.0030000e+000
  1.1100000e+000
  1.0890000e+000
  1.0180000e+000
  1.0810000e+000
  1.1260000e+000
  1.0140000e+000
  1.0340000e+000
  1.1490000e+000
  1.0430000e+000
  1.0120000e+000
  1.1260000e+000
  1.0910000e+000
  1.0020000e+000
  1.0720000e+000
  1.1370000e+000
  1.0230000e+000
  1.0400000e+000
  1.1670000e+000
  1.0660000e+000
  1.0350000e+000
  1.1660000e+000
  1.1210000e+000
  1.0200000e+000
  1.0730000e+000
  1.1270000e+000
  1.0230000e+000
  1.0470000e+000
  1.1690000e+000
  1.0620000e+000
  1.0290000e+000
  1.1410000e+000
  1.0930000e+000
  1.0050000e+000
  1.0770000e+000
  1.1200000e+000
  1.0130000e+000
  1.0430000e+000
  1.1690000e+000
  1.0680000e+000
  1.0380000e+000
  1.1260000e+000
  1.0830000e+000
  1.0050000e+000
  1.0810000e+000
  1.1500000e+000
  1.0220000e+000
  1.0280000e+000
  1.1400000e+000
  1.0480000e+000
  1.0120000e+000
  1.1230000e+000
  1.1010000e+000
  1.0140000e+000
  1.0930000e+000
  1.1550000e+000
  1.0320000e+000
  1.0350000e+000
  1.1410000e+000
  1.0520000e+000
  1.0230000e+000
  1.1300000e+000
  1.1030000e+000
  1.0190000e+000
  1.1080000e+000
  1.1950000e+000
  1.0810000e+000
  1.0970000e+000
  1.2200000e+000
  1.1030000e+000
  1.0540000e+000
  1.1790000e+000
  1.1360000e+000
  1.0180000e+000
  1.0770000e+000
  1.1200000e+000
  9.8600000e-001
  9.9400000e-001
  1.1020000e+000
  1.0100000e+000
  9.7600000e-001
  1.0870000e+000
  1.0680000e+000
  9.9600000e-001
  1.0610000e+000
  1.1100000e+000
  1.0020000e+000
  1.0130000e+000
  1.1280000e+000
  1.0440000e+000
  1.0190000e+000
  1.1540000e+000
  1.1170000e+000
  1.0190000e+000
  1.1750000e+000
  1.4070000e+000
  1.4410000e+000
  1.5720000e+000
  1.7150000e+000
  1.4650000e+000
  1.2040000e+000
  1.1250000e+000
  1.0000000e+000
  9.0700000e-001
  9.5600000e-001
  1.0040000e+000
  9.1900000e-001
  9.2200000e-001
  1.0000000e+000
  9.3000000e-001
  9.0700000e-001
  9.9500000e-001
  9.8100000e-001
  9.2100000e-001
  9.8900000e-001
  1.0620000e+000
  9.8000000e-001
  9.9100000e-001
  1.0870000e+000
  9.9600000e-001
  9.7100000e-001
  1.0870000e+000
  1.0790000e+000
  1.0030000e+000
  1.0710000e+000
  1.1100000e+000
  9.9900000e-001
  1.0200000e+000
  1.1490000e+000
  1.0610000e+000
  1.0230000e+000
  1.1320000e+000
  1.1210000e+000
  1.0580000e+000
  1.1400000e+000
  1.1940000e+000
  1.0620000e+000
  1.0880000e+000
  1.2210000e+000
  1.0970000e+000
  1.0680000e+000
  1.2190000e+000
  1.1840000e+000
  1.0830000e+000
  1.1750000e+000
  1.2420000e+000
  1.0950000e+000
  1.1120000e+000
  1.2350000e+000
  1.1170000e+000
  1.0710000e+000
  1.1920000e+000
  1.1570000e+000
  1.0530000e+000
  1.1070000e+000
  1.1400000e+000
  1.0040000e+000
  9.9900000e-001
  1.0560000e+000
  9.5000000e-001
  9.1100000e-001
  9.8000000e-001
  9.5500000e-001
  8.9200000e-001
  9.3400000e-001
  9.7000000e-001
  8.9900000e-001
  9.3100000e-001
  1.0300000e+000
  9.5300000e-001
  9.2600000e-001
  1.0120000e+000
  9.8400000e-001
  9.2700000e-001
  1.0040000e+000
  1.0530000e+000
  9.6000000e-001
  9.7900000e-001
  1.0790000e+000
  9.8900000e-001
  9.6100000e-001
  1.0860000e+000
  1.0760000e+000
  1.0070000e+000
  1.0770000e+000
  1.1370000e+000
  1.0280000e+000
  1.0490000e+000
  1.1670000e+000
  1.0710000e+000
  1.0320000e+000
  1.1360000e+000
  1.1070000e+000
  1.0320000e+000
  1.1110000e+000
  1.1650000e+000
  1.0340000e+000
  1.0490000e+000
  1.1660000e+000
  1.0580000e+000
  1.0250000e+000
  1.1360000e+000
  1.1020000e+000
  1.0220000e+000
  1.1020000e+000
  1.1500000e+000
  1.0270000e+000
  1.0710000e+000
  1.1890000e+000
  1.0570000e+000
  1.0150000e+000
  1.1260000e+000
  1.0920000e+000
  1.0250000e+000
  1.0960000e+000
  1.1300000e+000
  1.0190000e+000
  1.0330000e+000
  1.1650000e+000
  1.0690000e+000
  1.0380000e+000
  1.1370000e+000
  1.0890000e+000
  1.0020000e+000
  1.0730000e+000
  1.1350000e+000
  1.0250000e+000
  1.0380000e+000
  1.1430000e+000
  1.0400000e+000
  1.0130000e+000
  1.1310000e+000
  1.0910000e+000
  1.0230000e+000
  1.1130000e+000
  1.1590000e+000
  1.0150000e+000
  1.0450000e+000
  1.1920000e+000
  1.0780000e+000
  1.0380000e+000
  1.1510000e+000
  1.1060000e+000
  1.0390000e+000
  1.1490000e+000
  1.2140000e+000
  1.0710000e+000
  1.0920000e+000
  1.2040000e+000
  1.0670000e+000
  1.0170000e+000
  1.1050000e+000
  1.0590000e+000
  9.7600000e-001
  1.0330000e+000
  1.0830000e+000
  9.8800000e-001
  1.0120000e+000
  1.1230000e+000
  1.0300000e+000
  9.9400000e-001
  1.0910000e+000
  1.0540000e+000
  9.8600000e-001
  1.0540000e+000
  1.0960000e+000
  9.9600000e-001
  1.0420000e+000
  1.1940000e+000
  1.0970000e+000
  1.1110000e+000
  1.3860000e+000
  1.4970000e+000
  1.4450000e+000
  1.5570000e+000
  1.5470000e+000
  1.2330000e+000
  1.0760000e+000
  1.0730000e+000
  9.6000000e-001
  9.2500000e-001
  1.0050000e+000
  9.8100000e-001
  9.0700000e-001
  9.6500000e-001
  1.0130000e+000
  9.3600000e-001
  9.5100000e-001
  1.0270000e+000
  9.4700000e-001
  9.2900000e-001
  1.0290000e+000
  1.0140000e+000
  9.5400000e-001
  1.0150000e+000
  1.0570000e+000
  9.7300000e-001
  1.0070000e+000
  1.1170000e+000
  1.0240000e+000
  1.0080000e+000
  1.1420000e+000
  1.1130000e+000
  1.0230000e+000
  1.1020000e+000
  1.1450000e+000
  1.0090000e+000
  1.0300000e+000
  1.1330000e+000
  1.0440000e+000
  1.0300000e+000
  1.1620000e+000
  1.1320000e+000
  1.0580000e+000
  1.1720000e+000
  1.2240000e+000
  1.0780000e+000
  1.1080000e+000
  1.2520000e+000
  1.1430000e+000
  1.1180000e+000
  1.2540000e+000
  1.1870000e+000
  1.0830000e+000
  1.1590000e+000
  1.2210000e+000
  1.0860000e+000
  1.1100000e+000
  1.2110000e+000
  1.0710000e+000
  1.0220000e+000
  1.0980000e+000
  1.0440000e+000
  9.6600000e-001
  1.0330000e+000
  1.0620000e+000
  9.4500000e-001
  9.4600000e-001
  1.0080000e+000
  9.2500000e-001
  9.0600000e-001
  1.0040000e+000
  9.7300000e-001
  8.9500000e-001
  9.5500000e-001
  9.9900000e-001
  9.1700000e-001
  9.4000000e-001
  1.0340000e+000
  9.6900000e-001
  9.5800000e-001
  1.0620000e+000
  1.0320000e+000
  9.6900000e-001
  1.0480000e+000
  1.1010000e+000
  9.9300000e-001
  9.9000000e-001
  1.0820000e+000
  1.0040000e+000
  9.8800000e-001
  1.1060000e+000
  1.0790000e+000
  1.0090000e+000
  1.1050000e+000
  1.1520000e+000
  1.0270000e+000
  1.0630000e+000
  1.1870000e+000
  1.0610000e+000
  1.0220000e+000
  1.1560000e+000
  1.1180000e+000
  1.0250000e+000
  1.0890000e+000
  1.1310000e+000
  1.0120000e+000
  1.0420000e+000
  1.1590000e+000
  1.0430000e+000
  1.0140000e+000
  1.1320000e+000
  1.0970000e+000
  1.0340000e+000
  1.1100000e+000
  1.1490000e+000
  1.0240000e+000
  1.0350000e+000
  1.1430000e+000
  1.0380000e+000
  1.0190000e+000
  1.1380000e+000
  1.0960000e+000
  1.0170000e+000
  1.0980000e+000
  1.1380000e+000
  1.0200000e+000
  1.0490000e+000
  1.1640000e+000
  1.0540000e+000
  1.0220000e+000
  1.1420000e+000
  1.1010000e+000
  1.0220000e+000
  1.1080000e+000
  1.1690000e+000
  1.0400000e+000
  1.0530000e+000
  1.1540000e+000
  1.0390000e+000
  1.0280000e+000
  1.1460000e+000
  1.1000000e+000
  1.0070000e+000
  1.0930000e+000
  1.1410000e+000
  1.0270000e+000
  1.0610000e+000
  1.1900000e+000
  1.0870000e+000
  1.0560000e+000
  1.1870000e+000
  1.1540000e+000
  1.0570000e+000
  1.1230000e+000
  1.1850000e+000
  1.0480000e+000
  1.0440000e+000
  1.1150000e+000
  9.9500000e-001
  9.7300000e-001
  1.0860000e+000
  1.0500000e+000
  9.8100000e-001
  1.0520000e+000
  1.1020000e+000
  9.9900000e-001
  1.0240000e+000
  1.1230000e+000
  1.0290000e+000
  1.0070000e+000
  1.1030000e+000
  1.0620000e+000
  9.9600000e-001
  1.0930000e+000
  1.1520000e+000
  1.0720000e+000
  1.2100000e+000
  1.5620000e+000
  1.6130000e+000
  1.6280000e+000
  1.7280000e+000
  1.4900000e+000
  1.1720000e+000
  1.0880000e+000
  1.0350000e+000
  9.1100000e-001
  9.1500000e-001
  9.8300000e-001
  8.9900000e-001
  8.8300000e-001
  9.8000000e-001
  9.5000000e-001
  8.9300000e-001
  9.5400000e-001
  9.8300000e-001
  9.0500000e-001
  9.3600000e-001
  1.0270000e+000
  9.4900000e-001
  9.4000000e-001
  1.0440000e+000
  1.0190000e+000
  9.5600000e-001
  1.0400000e+000
  1.0930000e+000
  9.9500000e-001
  1.0220000e+000
  1.1280000e+000
  1.0320000e+000
  1.0190000e+000
  1.1430000e+000
  1.0920000e+000
  1.0130000e+000
  1.0890000e+000
  1.1460000e+000
  1.0430000e+000
  1.0710000e+000
  1.1740000e+000
  1.0630000e+000
  1.0430000e+000
  1.1640000e+000
  1.1360000e+000
  1.0620000e+000
  1.1700000e+000
  1.2350000e+000
  1.0890000e+000
  1.1130000e+000
  1.2490000e+000
  1.1410000e+000
  1.1280000e+000
  1.2680000e+000
  1.1820000e+000
  1.0690000e+000
  1.1500000e+000
  1.1720000e+000
  1.0320000e+000
  1.0560000e+000
  1.1500000e+000
  1.0150000e+000
  9.7600000e-001
  1.0590000e+000
  1.0100000e+000
  9.3600000e-001
  9.8300000e-001
  1.0030000e+000
  9.1900000e-001
  9.5100000e-001
  1.0470000e+000
  9.6500000e-001
  9.4700000e-001
  1.0330000e+000
  9.9300000e-001
  9.4100000e-001
  1.0080000e+000
  1.0390000e+000
  9.5800000e-001
  9.8000000e-001
  1.0730000e+000
  9.9000000e-001
  9.7300000e-001
  1.0620000e+000
  1.0290000e+000
  9.6900000e-001
  1.0420000e+000
  1.0910000e+000
  1.0130000e+000
  1.0520000e+000
  1.1860000e+000
  1.0640000e+000
  1.0130000e+000
  1.1150000e+000
  1.0670000e+000
  1.0050000e+000
  1.0950000e+000
  1.1300000e+000
  1.0150000e+000
  1.0480000e+000
  1.1610000e+000
  1.0560000e+000
  1.0290000e+000
  1.1500000e+000
  1.0840000e+000
  1.0090000e+000
  1.0930000e+000
  1.1220000e+000
  1.0230000e+000
  1.0770000e+000
  1.1800000e+000
  1.0560000e+000
  1.0490000e+000
  1.1540000e+000
  1.0860000e+000
  1.0070000e+000
  1.0960000e+000
  1.1420000e+000
  1.0300000e+000
  1.0500000e+000
  1.1570000e+000
  1.0450000e+000
  1.0150000e+000
  1.1380000e+000
  1.0860000e+000
  1.0040000e+000
  1.0870000e+000
  1.1280000e+000
  1.0220000e+000
  1.0740000e+000
  1.1750000e+000
  1.0500000e+000
  1.0350000e+000
  1.1650000e+000
  1.1110000e+000
  1.0330000e+000
  1.1200000e+000
  1.1550000e+000
  1.0390000e+000
  1.0810000e+000
  1.2130000e+000
  1.0920000e+000
  1.0540000e+000
  1.1750000e+000
  1.1020000e+000
  1.0140000e+000
  1.0830000e+000
  1.1220000e+000
  1.0120000e+000
  1.0350000e+000
  1.1200000e+000
  1.0040000e+000
  9.8400000e-001
  1.0910000e+000
  1.0570000e+000
  1.0050000e+000
  1.0840000e+000
  1.1110000e+000
  1.0000000e+000
  1.0230000e+000
  1.1060000e+000
  1.0140000e+000
  9.9400000e-001
  1.0930000e+000
  1.0630000e+000
  1.0230000e+000
  1.2100000e+000
  1.4430000e+000
  1.5050000e+000
  1.6930000e+000
  1.8660000e+000
  1.6220000e+000
  1.3770000e+000
  1.2720000e+000
  1.0370000e+000
  9.1700000e-001
  9.5100000e-001
  9.6300000e-001
  8.7600000e-001
  8.9600000e-001
  9.7100000e-001
  9.0000000e-001
  8.8700000e-001
  9.7900000e-001
  9.5300000e-001
  9.0300000e-001
  9.8000000e-001
  1.0050000e+000
  9.1500000e-001
  9.5900000e-001
  1.0560000e+000
  9.8500000e-001
  9.8000000e-001
  1.0830000e+000
  1.0480000e+000
  9.8800000e-001
  1.0660000e+000
  1.0920000e+000
  9.9100000e-001
  1.0320000e+000
  1.1540000e+000
  1.0490000e+000
  1.0330000e+000
  1.1370000e+000
  1.0730000e+000
  1.0090000e+000
  1.1080000e+000
  1.1590000e+000
  1.0590000e+000
  1.1060000e+000
  1.2280000e+000
  1.0960000e+000
  1.0710000e+000
  1.2280000e+000
  1.1670000e+000
  1.0760000e+000
  1.1870000e+000
  1.2300000e+000
  1.0920000e+000
  1.1360000e+000
  1.2440000e+000
  1.1160000e+000
  1.1050000e+000
  1.2490000e+000
  1.1600000e+000
  1.0470000e+000
  1.1330000e+000
  1.1410000e+000
  9.9100000e-001
  9.9500000e-001
  1.0720000e+000
  9.7000000e-001
  9.2900000e-001
  1.0050000e+000
  9.6000000e-001
  9.0200000e-001
  9.7900000e-001
  1.0030000e+000
  9.1500000e-001
  9.4200000e-001
  1.0200000e+000
  9.4400000e-001
  9.4600000e-001
  1.0580000e+000
  1.0190000e+000
  9.6300000e-001
  1.0290000e+000
  1.0430000e+000
  9.5300000e-001
  9.7500000e-001
  1.0560000e+000
  9.8900000e-001
  9.8600000e-001
  1.1150000e+000
  1.0670000e+000
  1.0040000e+000
  1.0930000e+000
  1.1180000e+000
  1.0070000e+000
  1.0450000e+000
  1.1450000e+000
  1.0370000e+000
  1.0090000e+000
  1.1320000e+000
  1.0760000e+000
  1.0180000e+000
  1.0930000e+000
  1.1220000e+000
  1.0140000e+000
  1.0500000e+000
  1.1670000e+000
  1.0580000e+000
  1.0350000e+000
  1.1430000e+000
  1.0840000e+000
  1.0130000e+000
  1.1030000e+000
  1.1460000e+000
  1.0230000e+000
  1.0620000e+000
  1.1840000e+000
  1.0640000e+000
  1.0330000e+000
  1.1410000e+000
  1.0810000e+000
  1.0180000e+000
  1.0960000e+000
  1.1210000e+000
  1.0040000e+000
  1.0350000e+000
  1.1380000e+000
  1.0330000e+000
  1.0250000e+000
  1.1570000e+000
  1.0930000e+000
  1.0190000e+000
  1.1020000e+000
  1.1510000e+000
  1.0390000e+000
  1.0640000e+000
  1.1660000e+000
  1.0580000e+000
  1.0590000e+000
  1.2050000e+000
  1.1310000e+000
  1.0440000e+000
  1.1270000e+000
  1.1430000e+000
  1.0250000e+000
  1.0620000e+000
  1.1660000e+000
  1.0420000e+000
  1.0030000e+000
  1.0860000e+000
  1.0340000e+000
  9.8500000e-001
  1.0880000e+000
  1.1330000e+000
  1.0080000e+000
  1.0300000e+000
  1.1170000e+000
  1.0130000e+000
  9.8600000e-001
  1.0810000e+000
  1.0350000e+000
  9.8500000e-001
  1.0720000e+000
  1.1070000e+000
  1.0070000e+000
  1.0560000e+000
  1.2010000e+000
  1.1400000e+000
  1.2700000e+000
  1.6160000e+000
  1.6740000e+000
  1.5770000e+000
  1.5690000e+000
  1.4020000e+000
  1.0590000e+000
  9.8800000e-001
  1.0290000e+000
  9.3500000e-001
  9.1500000e-001
  9.9500000e-001
  9.5000000e-001
  9.0000000e-001
  9.7300000e-001
  9.9600000e-001
  9.1100000e-001
  9.5300000e-001
  1.0420000e+000
  9.5600000e-001
  9.4100000e-001
  1.0430000e+000
  9.9900000e-001
  9.5300000e-001
  1.0540000e+000
  1.0760000e+000
  9.7400000e-001
  1.0400000e+000
  1.1500000e+000
  1.0350000e+000
  1.0200000e+000
  1.1400000e+000
  1.0740000e+000
  9.9500000e-001
  1.0730000e+000
  1.1210000e+000
  1.0270000e+000
  1.0730000e+000
  1.1810000e+000
  1.0760000e+000
  1.0680000e+000
  1.2090000e+000
  1.1330000e+000
  1.0540000e+000
  1.1570000e+000
  1.2090000e+000
  1.0860000e+000
  1.1370000e+000
  1.2650000e+000
  1.1230000e+000
  1.1120000e+000
  1.2790000e+000
  1.2000000e+000
  1.0970000e+000
  1.2040000e+000
  1.2420000e+000
  1.1000000e+000
  1.1270000e+000
  1.2040000e+000
  1.0440000e+000
  9.9800000e-001
  1.0890000e+000
  1.0090000e+000
  9.1400000e-001
  9.6800000e-001
  9.8400000e-001
  9.0200000e-001
  9.2900000e-001
  9.9600000e-001
  9.0900000e-001
  8.9100000e-001
  9.8600000e-001
  9.5800000e-001
  9.1400000e-001
  9.8000000e-001
  1.0000000e+000
  9.3100000e-001
  9.7400000e-001
  1.0570000e+000
  9.5500000e-001
  9.4000000e-001
  1.0350000e+000
  9.9100000e-001
  9.3900000e-001
  1.0330000e+000
  1.0730000e+000
  9.9500000e-001
  1.0350000e+000
  1.1300000e+000
  1.0290000e+000
  1.0170000e+000
  1.1330000e+000
  1.0690000e+000
  1.0100000e+000
  1.1100000e+000
  1.1380000e+000
  1.0320000e+000
  1.0780000e+000
  1.1750000e+000
  1.0590000e+000
  1.0400000e+000
  1.1600000e+000
  1.0910000e+000
  1.0080000e+000
  1.1020000e+000
  1.1250000e+000
  1.0270000e+000
  1.0740000e+000
  1.1840000e+000
  1.0620000e+000
  1.0370000e+000
  1.1460000e+000
  1.0760000e+000
  1.0200000e+000
  1.1230000e+000
  1.1510000e+000
  1.0240000e+000
  1.0610000e+000
  1.1640000e+000
  1.0470000e+000
  1.0390000e+000
  1.1470000e+000
  1.0670000e+000
  1.0000000e+000
  1.0710000e+000
  1.0920000e+000
  1.0150000e+000
  1.0680000e+000
  1.1570000e+000
  1.0390000e+000
  1.0280000e+000
  1.1700000e+000
  1.0920000e+000
  1.0200000e+000
  1.1200000e+000
  1.1690000e+000
  1.0690000e+000
  1.1120000e+000
  1.2050000e+000
  1.0680000e+000
  1.0520000e+000
  1.1660000e+000
  1.0960000e+000
  1.0380000e+000
  1.1270000e+000
  1.1220000e+000
  9.9900000e-001
  1.0280000e+000
  1.1120000e+000
  1.0040000e+000
  9.8400000e-001
  1.0810000e+000
  1.0320000e+000
  9.8400000e-001
  1.0840000e+000
  1.1170000e+000
  1.0120000e+000
  1.0390000e+000
  1.1270000e+000
  1.0220000e+000
  1.0000000e+000
  1.1280000e+000
  1.0830000e+000
  1.0280000e+000
  1.1540000e+000
  1.2540000e+000
  1.2620000e+000
  1.4870000e+000
  1.6900000e+000
  1.5050000e+000
  1.3600000e+000
  1.3330000e+000
  1.0810000e+000
  9.4900000e-001
  1.0140000e+000
  1.0240000e+000
  9.2500000e-001
  9.4200000e-001
  9.8800000e-001
  9.0300000e-001
  9.1700000e-001
  1.0240000e+000
  9.8300000e-001
  9.2500000e-001
  1.0050000e+000
  1.0290000e+000
  9.5000000e-001
  9.9000000e-001
  1.0790000e+000
  9.9100000e-001
  9.8100000e-001
  1.1000000e+000
  1.0590000e+000
  1.0050000e+000
  1.0910000e+000
  1.1000000e+000
  9.9000000e-001
  1.0370000e+000
  1.1410000e+000
  1.0440000e+000
  1.0440000e+000
  1.1740000e+000
  1.1060000e+000
  1.0340000e+000
  1.1220000e+000
  1.1520000e+000
  1.0530000e+000
  1.1070000e+000
  1.2260000e+000
  1.0980000e+000
  1.0930000e+000
  1.2590000e+000
  1.1900000e+000
  1.0950000e+000
  1.1940000e+000
  1.2340000e+000
  1.1160000e+000
  1.1690000e+000
  1.2770000e+000
  1.1300000e+000
  1.1160000e+000
  1.2600000e+000
  1.1720000e+000
  1.0630000e+000
  1.1380000e+000
  1.1280000e+000
  9.9300000e-001
  1.0100000e+000
  1.0690000e+000
  9.5900000e-001
  9.4000000e-001
  1.0150000e+000
  9.4900000e-001
  8.9300000e-001
  9.5600000e-001
  9.6100000e-001
  8.9700000e-001
  9.4100000e-001
  1.0130000e+000
  9.2000000e-001
  9.0900000e-001
  1.0050000e+000
  9.6500000e-001
  9.3600000e-001
  1.0220000e+000
  1.0480000e+000
  9.6500000e-001
  9.8600000e-001
  1.0580000e+000
  9.7300000e-001
  9.7400000e-001
  1.0820000e+000
  1.0430000e+000
  1.0100000e+000
  1.0970000e+000
  1.1030000e+000
  9.9800000e-001
  1.0430000e+000
  1.1360000e+000
  1.0270000e+000
  1.0270000e+000
  1.1610000e+000
  1.0910000e+000
  1.0330000e+000
  1.1320000e+000
  1.1400000e+000
  1.0280000e+000
  1.0770000e+000
  1.2060000e+000
  1.0720000e+000
  1.0540000e+000
  1.1700000e+000
  1.0640000e+000
  1.0100000e+000
  1.1030000e+000
  1.1170000e+000
  1.0150000e+000
  1.0590000e+000
  1.1450000e+000
  1.0270000e+000
  1.0190000e+000
  1.1370000e+000
  1.0810000e+000
  1.0290000e+000
  1.1350000e+000
  1.1460000e+000
  1.0300000e+000
  1.0610000e+000
  1.1450000e+000
  1.0200000e+000
  1.0040000e+000
  1.1230000e+000
  1.0720000e+000
  1.0080000e+000
  1.1080000e+000
  1.1220000e+000
  1.0240000e+000
  1.0870000e+000
  1.1870000e+000
  1.0420000e+000
  1.0320000e+000
  1.1520000e+000
  1.0760000e+000
  1.0180000e+000
  1.1050000e+000
  1.1220000e+000
  1.0220000e+000
  1.0690000e+000
  1.1510000e+000
  1.0280000e+000
  1.0190000e+000
  1.1570000e+000
  1.0930000e+000
  1.0470000e+000
  1.1640000e+000
  1.1870000e+000
  1.0680000e+000
  1.1360000e+000
  1.2200000e+000
  1.0560000e+000
  1.0490000e+000
  1.1820000e+000
  1.0960000e+000
  1.0180000e+000
  1.0770000e+000
  1.0580000e+000
  9.7000000e-001
  1.0220000e+000
  1.1080000e+000
  1.0080000e+000
  9.9600000e-001
  1.1020000e+000
  1.0240000e+000
  9.8600000e-001
  1.0970000e+000
  1.1050000e+000
  9.9100000e-001
  1.0390000e+000
  1.1380000e+000
  1.0240000e+000
  1.0120000e+000
  1.1330000e+000
  1.0910000e+000
  1.1160000e+000
  1.4220000e+000
  1.6420000e+000
  1.5910000e+000
  1.6550000e+000
  1.6260000e+000
  1.2480000e+000
  1.0590000e+000
  1.0670000e+000
  9.5900000e-001
  9.0100000e-001
  9.6500000e-001
  9.6500000e-001
  8.8300000e-001
  9.2200000e-001
  9.8800000e-001
  9.1500000e-001
  9.1900000e-001
  1.0070000e+000
  9.6100000e-001
  9.2200000e-001
  1.0090000e+000
  1.0320000e+000
  9.4100000e-001
  9.8100000e-001
  1.0730000e+000
  9.8600000e-001
  9.8600000e-001
  1.0920000e+000
  1.0300000e+000
  9.8300000e-001
  1.0820000e+000
  1.0950000e+000
  1.0050000e+000
  1.0710000e+000
  1.1790000e+000
  1.0630000e+000
  1.0590000e+000
  1.1960000e+000
  1.1070000e+000
  1.0490000e+000
  1.1490000e+000
  1.1350000e+000
  1.0320000e+000
  1.1000000e+000
  1.2210000e+000
  1.0830000e+000
  1.0890000e+000
  1.2590000e+000
  1.1660000e+000
  1.0970000e+000
  1.2210000e+000
  1.2420000e+000
  1.1160000e+000
  1.1740000e+000
  1.2960000e+000
  1.1220000e+000
  1.1120000e+000
  1.2380000e+000
  1.1030000e+000
  1.0240000e+000
  1.1080000e+000
  1.0720000e+000
  9.5300000e-001
  9.7900000e-001
  1.0290000e+000
  9.3200000e-001
  9.1700000e-001
  1.0040000e+000
  9.5000000e-001
  9.0300000e-001
  9.9000000e-001
  1.0020000e+000
  9.2100000e-001
  9.6400000e-001
  1.0190000e+000
  9.3000000e-001
  9.2900000e-001
  1.0230000e+000
  9.7300000e-001
  9.3400000e-001
  1.0250000e+000
  1.0380000e+000
  9.5600000e-001
  1.0050000e+000
  1.0880000e+000
  1.0120000e+000
  1.0250000e+000
  1.1360000e+000
  1.0480000e+000
  9.8500000e-001
  1.0740000e+000
  1.1100000e+000
  1.0200000e+000
  1.0540000e+000
  1.1420000e+000
  1.0320000e+000
  1.0280000e+000
  1.1310000e+000
  1.0470000e+000
  1.0070000e+000
  1.1170000e+000
  1.1280000e+000
  1.0270000e+000
  1.0970000e+000
  1.1980000e+000
  1.0570000e+000
  1.0330000e+000
  1.1550000e+000
  1.0910000e+000
  1.0220000e+000
  1.1300000e+000
  1.1410000e+000
  1.0230000e+000
  1.0710000e+000
  1.1640000e+000
  1.0400000e+000
  1.0350000e+000
  1.1510000e+000
  1.0810000e+000
  1.0230000e+000
  1.1200000e+000
  1.1180000e+000
  1.0130000e+000
  1.0620000e+000
  1.1460000e+000
  1.0380000e+000
  1.0390000e+000
  1.1620000e+000
  1.0840000e+000
  1.0130000e+000
  1.1110000e+000
  1.1160000e+000
  1.0080000e+000
  1.0570000e+000
  1.1520000e+000
  1.0330000e+000
  1.0200000e+000
  1.1260000e+000
  1.0610000e+000
  1.0190000e+000
  1.1220000e+000
  1.1280000e+000
  1.0320000e+000
  1.0920000e+000
  1.1660000e+000
  1.0380000e+000
  1.0220000e+000
  1.1410000e+000
  1.0740000e+000
  1.0130000e+000
  1.0890000e+000
  1.0970000e+000
  9.9600000e-001
  1.0450000e+000
  1.1380000e+000
  1.0250000e+000
  1.0400000e+000
  1.1800000e+000
  1.1160000e+000
  1.0620000e+000
  1.1700000e+000
  1.1600000e+000
  1.0420000e+000
  1.1050000e+000
  1.2050000e+000
  1.0590000e+000
  1.0430000e+000
  1.1560000e+000
  1.0660000e+000
  9.9600000e-001
  1.0980000e+000
  1.1020000e+000
  1.0050000e+000
  1.0490000e+000
  1.1370000e+000
  1.0240000e+000
  1.0130000e+000
  1.1110000e+000
  1.0330000e+000
  9.8300000e-001
  1.0620000e+000
  1.0640000e+000
  9.7900000e-001
  1.0170000e+000
  1.0780000e+000
  9.8800000e-001
  1.0100000e+000
  1.1370000e+000
  1.0640000e+000
  1.0250000e+000
  1.1500000e+000
  1.2340000e+000
  1.2690000e+000
  1.5610000e+000
  1.7910000e+000
  1.6320000e+000
  1.5240000e+000
  1.4900000e+000
  1.1540000e+000
  9.6000000e-001
  9.8300000e-001
  9.5600000e-001
  8.8500000e-001
  9.2900000e-001
  9.8300000e-001
  8.8500000e-001
  8.8200000e-001
  9.8400000e-001
  9.3600000e-001
  9.1000000e-001
  9.9400000e-001
  9.9900000e-001
  9.1700000e-001
  9.7000000e-001
  1.0570000e+000
  9.6800000e-001
  9.6300000e-001
  1.0590000e+000
  1.0090000e+000
  9.7900000e-001
  1.0740000e+000
  1.0770000e+000
  9.9000000e-001
  1.0380000e+000
  1.1370000e+000
  1.0370000e+000
  1.0320000e+000
  1.1620000e+000
  1.0790000e+000
  1.0280000e+000
  1.1410000e+000
  1.1400000e+000
  1.0300000e+000
  1.0780000e+000
  1.1720000e+000
  1.0540000e+000
  1.0660000e+000
  1.2260000e+000
  1.1490000e+000
  1.0840000e+000
  1.2100000e+000
  1.2350000e+000
  1.1210000e+000
  1.1900000e+000
  1.2930000e+000
  1.1500000e+000
  1.1460000e+000
  1.2740000e+000
  1.1560000e+000
  1.0740000e+000
  1.1650000e+000
  1.1260000e+000
  1.0000000e+000
  1.0320000e+000
  1.0820000e+000
  9.7100000e-001
  9.6800000e-001
  1.0520000e+000
  9.8500000e-001
  9.2500000e-001
  9.9000000e-001
  9.8400000e-001
  9.0200000e-001
  9.3500000e-001
  9.9300000e-001
  9.1100000e-001
  9.2400000e-001
  1.0370000e+000
  9.8000000e-001
  9.4700000e-001
  1.0270000e+000
  1.0120000e+000
  9.3600000e-001
  9.9500000e-001
  1.0820000e+000
  9.8800000e-001
  9.9000000e-001
  1.0930000e+000
  1.0180000e+000
  9.7000000e-001
  1.0630000e+000
  1.0720000e+000
  9.9000000e-001
  1.0530000e+000
  1.1540000e+000
  1.0280000e+000
  1.0220000e+000
  1.1360000e+000
  1.0570000e+000
  1.0170000e+000
  1.1380000e+000
  1.1370000e+000
  1.0230000e+000
  1.0780000e+000
  1.1650000e+000
  1.0390000e+000
  1.0380000e+000
  1.1650000e+000
  1.0720000e+000
  1.0170000e+000
  1.1200000e+000
  1.1080000e+000
  1.0250000e+000
  1.0910000e+000
  1.1850000e+000
  1.0580000e+000
  1.0570000e+000
  1.1550000e+000
  1.0730000e+000
  1.0250000e+000
  1.1260000e+000
  1.1200000e+000
  1.0200000e+000
  1.0730000e+000
  1.1500000e+000
  1.0230000e+000
  1.0270000e+000
  1.1520000e+000
  1.0620000e+000
  1.0140000e+000
  1.1280000e+000
  1.1160000e+000
  1.0250000e+000
  1.1010000e+000
  1.1870000e+000
  1.0560000e+000
  1.0530000e+000
  1.1610000e+000
  1.0450000e+000
  9.9100000e-001
  1.1060000e+000
  1.0840000e+000
  1.0020000e+000
  1.0680000e+000
  1.1490000e+000
  1.0330000e+000
  1.0470000e+000
  1.1720000e+000
  1.0760000e+000
  1.0150000e+000
  1.1120000e+000
  1.1060000e+000
  1.0200000e+000
  1.0820000e+000
  1.1590000e+000
  1.0430000e+000
  1.0250000e+000
  1.1300000e+000
  1.0540000e+000
  9.9600000e-001
  1.1060000e+000
  1.1180000e+000
  1.0230000e+000
  1.0720000e+000
  1.1670000e+000
  1.0610000e+000
  1.0720000e+000
  1.2140000e+000
  1.1120000e+000
  1.0520000e+000
  1.1520000e+000
  1.1320000e+000
  1.0370000e+000
  1.0890000e+000
  1.1350000e+000
  9.9900000e-001
  9.9400000e-001
  1.0980000e+000
  1.0200000e+000
  9.7900000e-001
  1.0770000e+000
  1.0670000e+000
  9.7500000e-001
  1.0340000e+000
  1.1180000e+000
  1.0170000e+000
  1.0180000e+000
  1.1350000e+000
  1.0380000e+000
  9.9000000e-001
  1.1010000e+000
  1.0920000e+000
  9.8900000e-001
  1.0440000e+000
  1.1450000e+000
  1.0620000e+000
  1.1510000e+000
  1.4870000e+000
  1.5560000e+000
  1.5520000e+000
  1.6460000e+000
  1.4990000e+000
  1.1810000e+000
  1.0830000e+000
  1.0560000e+000
  9.3100000e-001
  9.2400000e-001
  9.9500000e-001
  9.1400000e-001
  8.8300000e-001
  9.6800000e-001
  9.6400000e-001
  9.1000000e-001
  9.6900000e-001
  1.0190000e+000
  9.3000000e-001
  9.4400000e-001
  1.0430000e+000
  9.8900000e-001
  9.6000000e-001
  1.0520000e+000
  1.0380000e+000
  9.7000000e-001
  1.0380000e+000
  1.1000000e+000
  9.9300000e-001
  1.0050000e+000
  1.1180000e+000
  1.0400000e+000
  1.0040000e+000
  1.1110000e+000
  1.1050000e+000
  1.0140000e+000
  1.0660000e+000
  1.1510000e+000
  1.0580000e+000
  1.0710000e+000
  1.2090000e+000
  1.1000000e+000
  1.0370000e+000
  1.1650000e+000
  1.1870000e+000
  1.0830000e+000
  1.1510000e+000
  1.2300000e+000
  1.0920000e+000
  1.1200000e+000
  1.2830000e+000
  1.1710000e+000
  1.0960000e+000
  1.2160000e+000
  1.2040000e+000
  1.0740000e+000
  1.1600000e+000
  1.2400000e+000
  1.0840000e+000
  1.0670000e+000
  1.1430000e+000
  1.0270000e+000
  9.8300000e-001
  1.0530000e+000
  1.0150000e+000
  9.2400000e-001
  9.5400000e-001
  9.8800000e-001
  9.1000000e-001
  9.1500000e-001
  9.9500000e-001
  9.3200000e-001
  9.1000000e-001
  9.9800000e-001
  1.0040000e+000
  9.3100000e-001
  9.7400000e-001
  1.0340000e+000
  9.4600000e-001
  9.5100000e-001
  1.0530000e+000
  9.9300000e-001
  9.6800000e-001
  1.0540000e+000
  1.0390000e+000
  9.6100000e-001
  1.0090000e+000
  1.0930000e+000
  9.9900000e-001
  1.0070000e+000
  1.1200000e+000
  1.0420000e+000
  9.9900000e-001
  1.1000000e+000
  1.1070000e+000
  1.0290000e+000
  1.1000000e+000
  1.1800000e+000
  1.0560000e+000
  1.0500000e+000
  1.1490000e+000
  1.0590000e+000
  1.0200000e+000
  1.1220000e+000
  1.1050000e+000
  1.0130000e+000
  1.0710000e+000
  1.1460000e+000
  1.0290000e+000
  1.0390000e+000
  1.1700000e+000
  1.0890000e+000
  1.0470000e+000
  1.1560000e+000
  1.1180000e+000
  1.0130000e+000
  1.0830000e+000
  1.1750000e+000
  1.0480000e+000
  1.0560000e+000
  1.1690000e+000
  1.0450000e+000
  9.9400000e-001
  1.1030000e+000
  1.1080000e+000
  1.0250000e+000
  1.0720000e+000
  1.1300000e+000
  1.0180000e+000
  1.0320000e+000
  1.1540000e+000
  1.0610000e+000
  1.0250000e+000
  1.1370000e+000
  1.1120000e+000
  1.0130000e+000
  1.0690000e+000
  1.1370000e+000
  1.0190000e+000
  1.0250000e+000
  1.1460000e+000
  1.0580000e+000
  1.0150000e+000
  1.1180000e+000
  1.1180000e+000
  1.0290000e+000
  1.0680000e+000
  1.1270000e+000
  1.0230000e+000
  1.0490000e+000
  1.1660000e+000
  1.0560000e+000
  1.0120000e+000
  1.1110000e+000
  1.0960000e+000
  1.0080000e+000
  1.0720000e+000
  1.1380000e+000
  1.0250000e+000
  1.0370000e+000
  1.1650000e+000
  1.0690000e+000
  1.0170000e+000
  1.1470000e+000
  1.1460000e+000
  1.0350000e+000
  1.0960000e+000
  1.1800000e+000
  1.0610000e+000
  1.0760000e+000
  1.2100000e+000
  1.0950000e+000
  1.0300000e+000
  1.1110000e+000
  1.0680000e+000
  9.8000000e-001
  1.0420000e+000
  1.1180000e+000
  1.0120000e+000
  1.0050000e+000
  1.0890000e+000
  1.0230000e+000
  9.9600000e-001
  1.0910000e+000
  1.0730000e+000
  9.9100000e-001
  1.0540000e+000
  1.1230000e+000
  1.0100000e+000
  1.0140000e+000
  1.1160000e+000
  1.0420000e+000
  1.0290000e+000
  1.1670000e+000
  1.2000000e+000
  1.2360000e+000
  1.5380000e+000
  1.7690000e+000
  1.6370000e+000
  1.5660000e+000
  1.5390000e+000
  1.1840000e+000
  9.8000000e-001
  1.0020000e+000
  9.6500000e-001
  8.8200000e-001
  9.3000000e-001
  9.8100000e-001
  8.9700000e-001
  8.9900000e-001
  9.8000000e-001
  9.2400000e-001
  9.0100000e-001
  9.8900000e-001
  9.8600000e-001
  9.2900000e-001
  9.7500000e-001
  1.0230000e+000
  9.5300000e-001
  9.8300000e-001
  1.0920000e+000
  1.0150000e+000
  9.7800000e-001
  1.0820000e+000
  1.0670000e+000
  9.8400000e-001
  1.0480000e+000
  1.1130000e+000
  1.0130000e+000
  1.0230000e+000
  1.1430000e+000
  1.0540000e+000
  1.0220000e+000
  1.1280000e+000
  1.1030000e+000
  1.0170000e+000
  1.0890000e+000
  1.1720000e+000
  1.0530000e+000
  1.0660000e+000
  1.2180000e+000
  1.1230000e+000
  1.0960000e+000
  1.2290000e+000
  1.2010000e+000
  1.0910000e+000
  1.1650000e+000
  1.2440000e+000
  1.0970000e+000
  1.1160000e+000
  1.2490000e+000
  1.1220000e+000
  1.0690000e+000
  1.1750000e+000
  1.1320000e+000
  1.0280000e+000
  1.0660000e+000
  1.1050000e+000
  9.9300000e-001
  1.0000000e+000
  1.0730000e+000
  9.7000000e-001
  9.3500000e-001
  1.0120000e+000
  9.8900000e-001
  9.1200000e-001
  9.5900000e-001
  1.0080000e+000
  9.3000000e-001
  9.4400000e-001
  1.0230000e+000
  9.5100000e-001
  9.2400000e-001
  1.0100000e+000
  1.0000000e+000
  9.4000000e-001
  1.0000000e+000
  1.0500000e+000
  9.8300000e-001
  1.0050000e+000
  1.1200000e+000
  1.0290000e+000
  1.0050000e+000
  1.1320000e+000
  1.1020000e+000
  9.9500000e-001
  1.0540000e+000
  1.1050000e+000
  1.0070000e+000
  1.0340000e+000
  1.1430000e+000
  1.0350000e+000
  9.9300000e-001
  1.0930000e+000
  1.0710000e+000
  1.0030000e+000
  1.0810000e+000
  1.1570000e+000
  1.0350000e+000
  1.0530000e+000
  1.1810000e+000
  1.0820000e+000
  1.0330000e+000
  1.1460000e+000
  1.1210000e+000
  1.0300000e+000
  1.0980000e+000
  1.1520000e+000
  1.0350000e+000
  1.0490000e+000
  1.1540000e+000
  1.0520000e+000
  1.0150000e+000
  1.1280000e+000
  1.0970000e+000
  1.0180000e+000
  1.0960000e+000
  1.1620000e+000
  1.0370000e+000
  1.0420000e+000
  1.1520000e+000
  1.0640000e+000
  1.0290000e+000
  1.1410000e+000
  1.1030000e+000
  1.0170000e+000
  1.0710000e+000
  1.1200000e+000
  1.0190000e+000
  1.0350000e+000
  1.1360000e+000
  1.0450000e+000
  1.0220000e+000
  1.1410000e+000
  1.1020000e+000
  1.0020000e+000
  1.0720000e+000
  1.1570000e+000
  1.0530000e+000
  1.0730000e+000
  1.1990000e+000
  1.0760000e+000
  1.0280000e+000
  1.1150000e+000
  1.0820000e+000
  1.0030000e+000
  1.0690000e+000
  1.1380000e+000
  1.0220000e+000
  1.0320000e+000
  1.1300000e+000
  1.0390000e+000
  1.0170000e+000
  1.1250000e+000
  1.0890000e+000
  1.0070000e+000
  1.0810000e+000
  1.1460000e+000
  1.0240000e+000
  1.0390000e+000
  1.1510000e+000
  1.0450000e+000
  1.0170000e+000
  1.1310000e+000
  1.1130000e+000
  1.0240000e+000
  1.0780000e+000
  1.1380000e+000
  1.0300000e+000
  1.0720000e+000
  1.2210000e+000
  1.0780000e+000
  1.0270000e+000
  1.1450000e+000
  1.1210000e+000
  1.0350000e+000
  1.0930000e+000
  1.1350000e+000
  1.0090000e+000
  1.0120000e+000
  1.1150000e+000
  1.0290000e+000
  9.8500000e-001
  1.0770000e+000
  1.0620000e+000
  1.0020000e+000
  1.0590000e+000
  1.1110000e+000
  1.0020000e+000
  1.0020000e+000
  1.0810000e+000
  9.9400000e-001
  9.7500000e-001
  1.1060000e+000
  1.0840000e+000
  1.0140000e+000
  1.0970000e+000
  1.1720000e+000
  1.1120000e+000
  1.3280000e+000
  1.7060000e+000
  1.7090000e+000
  1.6720000e+000
  1.6990000e+000
  1.4400000e+000
  1.1030000e+000
  1.0290000e+000
  1.0070000e+000
  8.8700000e-001
  8.9100000e-001
  9.6900000e-001
  9.0000000e-001
  8.7800000e-001
  9.6000000e-001
  9.3900000e-001
  8.8800000e-001
  9.5000000e-001
  9.9800000e-001
  9.2100000e-001
  9.4500000e-001
  1.0440000e+000
  9.7800000e-001
  9.5100000e-001
  1.0450000e+000
  1.0330000e+000
  9.5900000e-001
  1.0180000e+000
  1.0730000e+000
  9.8100000e-001
  9.9400000e-001
  1.1030000e+000
  1.0270000e+000
  1.0020000e+000
  1.1250000e+000
  1.1120000e+000
  1.0340000e+000
  1.1060000e+000
  1.1640000e+000
  1.0420000e+000
  1.0570000e+000
  1.1750000e+000
  1.0760000e+000
  1.0470000e+000
  1.1860000e+000
  1.1510000e+000
  1.0560000e+000
  1.1510000e+000
  1.2290000e+000
  1.0980000e+000
  1.1320000e+000
  1.2640000e+000
  1.1230000e+000
  1.0910000e+000
  1.2330000e+000
  1.1900000e+000
  1.0860000e+000
  1.1590000e+000
  1.2000000e+000
  1.0610000e+000
  1.0770000e+000
  1.1760000e+000
  1.0330000e+000
  9.8000000e-001
  1.0490000e+000
  9.9900000e-001
  9.3400000e-001
  1.0000000e+000
  1.0290000e+000
  9.2200000e-001
  9.2700000e-001
  1.0140000e+000
  9.5800000e-001
  9.3900000e-001
  1.0290000e+000
  9.9300000e-001
  9.2200000e-001
  9.9500000e-001
  1.0630000e+000
  9.7800000e-001
  9.8500000e-001
  1.0770000e+000
  1.0020000e+000
  9.7500000e-001
  1.0760000e+000
  1.0470000e+000
  9.7500000e-001
  1.0450000e+000
  1.0950000e+000
  9.9600000e-001
  1.0150000e+000
  1.1160000e+000
  1.0270000e+000
  9.9800000e-001
  1.1170000e+000
  1.0960000e+000
  1.0070000e+000
  1.0910000e+000
  1.1600000e+000
  1.0380000e+000
  1.0530000e+000
  1.1700000e+000
  1.0710000e+000
  1.0300000e+000
  1.1350000e+000
  1.0890000e+000
  1.0090000e+000
  1.0770000e+000
  1.1230000e+000
  1.0190000e+000
  1.0530000e+000
  1.1910000e+000
  1.0670000e+000
  1.0300000e+000
  1.1420000e+000
  1.0920000e+000
  1.0090000e+000
  1.0950000e+000
  1.1600000e+000
  1.0330000e+000
  1.0470000e+000
  1.1510000e+000
  1.0430000e+000
  1.0180000e+000
  1.1330000e+000
  1.1050000e+000
  1.0230000e+000
  1.0890000e+000
  1.1400000e+000
  1.0300000e+000
  1.0480000e+000
  1.1570000e+000
  1.0560000e+000
  1.0170000e+000
  1.1400000e+000
  1.1100000e+000
  1.0140000e+000
  1.0780000e+000
  1.1370000e+000
  1.0290000e+000
  1.0400000e+000
  1.1310000e+000
  1.0290000e+000
  1.0040000e+000
  1.1160000e+000
  1.0880000e+000
  1.0220000e+000
  1.0920000e+000
  1.1350000e+000
  1.0200000e+000
  1.0370000e+000
  1.1590000e+000
  1.0610000e+000
  1.0300000e+000
  1.1270000e+000
  1.0820000e+000
  9.9600000e-001
  1.0690000e+000
  1.1260000e+000
  1.0080000e+000
  1.0320000e+000
  1.1610000e+000
  1.0530000e+000
  1.0130000e+000
  1.1200000e+000
  1.0770000e+000
  1.0020000e+000
  1.0760000e+000
  1.1350000e+000
  1.0230000e+000
  1.0560000e+000
  1.1820000e+000
  1.0690000e+000
  1.0470000e+000
  1.1940000e+000
  1.1520000e+000
  1.0560000e+000
  1.1260000e+000
  1.1570000e+000
  1.0290000e+000
  1.0580000e+000
  1.1670000e+000
  1.0450000e+000
  1.0030000e+000
  1.0960000e+000
  1.0580000e+000
  9.9300000e-001
  1.0580000e+000
  1.0840000e+000
  9.8400000e-001
  1.0090000e+000
  1.1030000e+000
  1.0120000e+000
  9.8300000e-001
  1.0680000e+000
  1.0480000e+000
  9.9400000e-001
  1.0810000e+000
  1.1270000e+000
  1.0020000e+000
  1.0230000e+000
  1.1710000e+000
  1.1300000e+000
  1.2670000e+000
  1.6540000e+000
  1.7380000e+000
  1.6560000e+000
  1.6720000e+000
  1.5430000e+000
  1.1410000e+000
  1.0090000e+000
  1.0200000e+000
  9.1000000e-001
  8.8500000e-001
  9.7400000e-001
  9.4500000e-001
  8.8100000e-001
  9.3700000e-001
  9.6600000e-001
  8.9000000e-001
  9.2100000e-001
  1.0100000e+000
  9.4400000e-001
  9.3000000e-001
  1.0250000e+000
  9.9900000e-001
  9.4400000e-001
  1.0050000e+000
  1.0370000e+000
  9.6100000e-001
  1.0030000e+000
  1.1160000e+000
  1.0250000e+000
  1.0190000e+000
  1.1380000e+000
  1.0910000e+000
  1.0080000e+000
  1.0630000e+000
  1.0970000e+000
  1.0040000e+000
  1.0350000e+000
  1.1490000e+000
  1.0530000e+000
  1.0330000e+000
  1.1690000e+000
  1.1400000e+000
  1.0570000e+000
  1.1460000e+000
  1.2210000e+000
  1.0860000e+000
  1.1100000e+000
  1.2460000e+000
  1.1220000e+000
  1.0930000e+000
  1.2540000e+000
  1.1860000e+000
  1.0710000e+000
  1.1660000e+000
  1.2280000e+000
  1.0840000e+000
  1.1070000e+000
  1.2240000e+000
  1.0890000e+000
  1.0400000e+000
  1.1310000e+000
  1.0560000e+000
  9.7500000e-001
  1.0320000e+000
  1.0500000e+000
  9.4200000e-001
  9.4200000e-001
  1.0270000e+000
  9.4900000e-001
  9.2200000e-001
  1.0080000e+000
  9.7000000e-001
  9.0700000e-001
  9.6800000e-001
  1.0070000e+000
  9.2900000e-001
  9.6000000e-001
  1.0490000e+000
  9.7300000e-001
  9.5500000e-001
  1.0640000e+000
  1.0290000e+000
  9.6300000e-001
  1.0320000e+000
  1.0670000e+000
  9.7400000e-001
  1.0080000e+000
  1.1070000e+000
  1.0200000e+000
  1.0090000e+000
  1.1230000e+000
  1.0810000e+000
  1.0090000e+000
  1.0890000e+000
  1.1220000e+000
  9.8800000e-001
  1.0140000e+000
  1.1320000e+000
  1.0430000e+000
  1.0380000e+000
  1.1740000e+000
  1.1250000e+000
  1.0390000e+000
  1.1120000e+000
  1.1450000e+000
  1.0240000e+000
  1.0630000e+000
  1.1860000e+000
  1.0640000e+000
  1.0420000e+000
  1.1420000e+000
  1.0970000e+000
  1.0290000e+000
  1.1100000e+000
  1.1410000e+000
  1.0190000e+000
  1.0430000e+000
  1.1380000e+000
  1.0400000e+000
  1.0280000e+000
  1.1520000e+000
  1.1080000e+000
  1.0330000e+000
  1.1120000e+000
  1.1450000e+000
  1.0200000e+000
  1.0490000e+000
  1.1550000e+000
  1.0470000e+000
  1.0150000e+000
  1.1050000e+000
  1.0690000e+000
  1.0020000e+000
  1.0770000e+000
  1.1400000e+000
  1.0520000e+000
  1.0680000e+000
  1.1600000e+000
  1.0470000e+000
  1.0200000e+000
  1.1370000e+000
  1.0880000e+000
  1.0150000e+000
  1.0960000e+000
  1.1420000e+000
  1.0270000e+000
  1.0560000e+000
  1.1590000e+000
  1.0290000e+000
  9.9400000e-001
  1.1300000e+000
  1.1010000e+000
  1.0250000e+000
  1.1030000e+000
  1.1420000e+000
  1.0320000e+000
  1.0610000e+000
  1.1510000e+000
  1.0440000e+000
  1.0240000e+000
  1.1420000e+000
  1.1070000e+000
  1.0340000e+000
  1.1250000e+000
  1.1640000e+000
  1.0320000e+000
  1.0490000e+000
  1.1750000e+000
  1.0690000e+000
  1.0400000e+000
  1.1510000e+000
  1.1200000e+000
  1.0430000e+000
  1.1170000e+000
  1.1200000e+000
  1.0020000e+000
  1.0280000e+000
  1.1250000e+000
  1.0300000e+000
  1.0040000e+000
  1.0950000e+000
  1.0300000e+000
  9.5800000e-001
  1.0270000e+000
  1.0570000e+000
  9.6800000e-001
  1.0070000e+000
  1.1110000e+000
  1.0180000e+000
  1.0000000e+000
  1.1080000e+000
  1.0610000e+000
  1.0150000e+000
  1.1490000e+000
  1.3020000e+000
  1.3320000e+000
  1.5410000e+000
  1.7150000e+000
  1.4900000e+000
  1.3240000e+000
  1.2910000e+000
  1.0630000e+000
  9.2500000e-001
  9.6300000e-001
  9.8100000e-001
  9.0100000e-001
  9.2500000e-001
  9.9500000e-001
  9.2700000e-001
  9.1500000e-001
  1.0190000e+000
  9.8500000e-001
  9.4200000e-001
  1.0190000e+000
  1.0450000e+000
  9.5900000e-001
  9.8800000e-001
  1.0730000e+000
  9.8500000e-001
  9.6900000e-001
  1.0690000e+000
  1.0300000e+000
  9.7800000e-001
  1.0710000e+000
  1.1080000e+000
  1.0090000e+000
  1.0420000e+000
  1.1430000e+000
  1.0450000e+000
  1.0350000e+000
  1.1850000e+000
  1.1270000e+000
  1.0350000e+000
  1.1220000e+000
  1.1500000e+000
  1.0240000e+000
  1.0760000e+000
  1.2160000e+000
  1.0830000e+000
  1.0630000e+000
  1.2190000e+000
  1.1690000e+000
  1.0860000e+000
  1.1920000e+000
  1.2440000e+000
  1.1050000e+000
  1.1280000e+000
  1.2390000e+000
  1.1080000e+000
  1.0930000e+000
  1.2340000e+000
  1.1490000e+000
  1.0560000e+000
  1.1330000e+000
  1.1660000e+000
  1.0300000e+000
  1.0200000e+000
  1.0930000e+000
  9.8600000e-001
  9.5800000e-001
  1.0330000e+000
  9.7400000e-001
  9.0900000e-001
  9.6100000e-001
  9.7000000e-001
  8.8700000e-001
  9.2400000e-001
  1.0070000e+000
  9.3500000e-001
  9.3200000e-001
  1.0100000e+000
  9.6400000e-001
  9.1900000e-001
  1.0030000e+000
  1.0440000e+000
  9.5000000e-001
  9.8100000e-001
  1.0950000e+000
  1.0270000e+000
  9.8800000e-001
  1.0730000e+000
  1.0280000e+000
  9.7300000e-001
  1.0480000e+000
  1.0820000e+000
  9.9800000e-001
  1.0430000e+000
  1.1600000e+000
  1.0480000e+000
  1.0250000e+000
  1.1450000e+000
  1.0860000e+000
  1.0280000e+000
  1.1060000e+000
  1.1520000e+000
  1.0480000e+000
  1.0920000e+000
  1.1910000e+000
  1.0500000e+000
  1.0320000e+000
  1.1400000e+000
  1.0820000e+000
  1.0150000e+000
  1.1100000e+000
  1.1330000e+000
  1.0150000e+000
  1.0440000e+000
  1.1510000e+000
  1.0390000e+000
  1.0250000e+000
  1.1380000e+000
  1.0870000e+000
  1.0290000e+000
  1.1060000e+000
  1.1300000e+000
  1.0140000e+000
  1.0560000e+000
  1.1610000e+000
  1.0560000e+000
  1.0480000e+000
  1.1500000e+000
  1.0790000e+000
  1.0040000e+000
  1.0790000e+000
  1.1160000e+000
  1.0270000e+000
  1.0690000e+000
  1.1660000e+000
  1.0320000e+000
  1.0020000e+000
  1.1280000e+000
  1.0860000e+000
  1.0170000e+000
  1.1060000e+000
  1.1330000e+000
  1.0220000e+000
  1.0490000e+000
  1.1660000e+000
  1.0540000e+000
  1.0480000e+000
  1.1690000e+000
  1.0970000e+000
  1.0150000e+000
  1.0780000e+000
  1.1060000e+000
  1.0020000e+000
  1.0430000e+000
  1.1490000e+000
  1.0470000e+000
  1.0350000e+000
  1.1620000e+000
  1.0770000e+000
  1.0170000e+000
  1.1370000e+000
  1.2010000e+000
  1.0630000e+000
  1.1070000e+000
  1.2250000e+000
  1.0820000e+000
  1.0400000e+000
  1.1640000e+000
  1.1130000e+000
  1.0270000e+000
  1.0840000e+000
  1.0840000e+000
  9.7000000e-001
  9.9900000e-001
  1.0960000e+000
  1.0050000e+000
  9.9600000e-001
  1.1060000e+000
  1.0620000e+000
  9.9900000e-001
  1.0740000e+000
  1.1000000e+000
  1.0020000e+000
  1.0340000e+000
  1.1180000e+000
  1.0180000e+000
  1.0050000e+000
  1.1250000e+000
  1.1020000e+000
  1.1000000e+000
  1.3470000e+000
  1.5530000e+000
  1.5180000e+000
  1.5800000e+000
  1.5980000e+000
  1.2680000e+000
  1.0540000e+000
  1.0610000e+000
  9.7900000e-001
  9.1100000e-001
  9.6900000e-001
  9.8500000e-001
  8.9600000e-001
  9.2900000e-001
  9.9800000e-001
  9.1200000e-001
  9.0700000e-001
  1.0130000e+000
  9.8300000e-001
  9.3700000e-001
  1.0180000e+000
  1.0390000e+000
  9.5000000e-001
  9.8800000e-001
  1.0740000e+000
  9.8400000e-001
  1.0040000e+000
  1.1350000e+000
  1.0740000e+000
  9.9800000e-001
  1.0740000e+000
  1.1000000e+000
  1.0090000e+000
  1.0560000e+000
  1.1400000e+000
  1.0200000e+000
  1.0190000e+000
  1.1490000e+000
  1.0970000e+000
  1.0390000e+000
  1.1550000e+000
  1.1750000e+000
  1.0580000e+000
  1.1230000e+000
  1.2250000e+000
  1.0840000e+000
  1.0740000e+000
  1.2290000e+000
  1.1430000e+000
  1.0680000e+000
  1.1860000e+000
  1.2280000e+000
  1.0820000e+000
  1.1260000e+000
  1.2390000e+000
  1.1000000e+000
  1.0790000e+000
  1.2000000e+000
  1.1220000e+000
  1.0420000e+000
  1.1260000e+000
  1.1220000e+000
  9.7600000e-001
  9.9400000e-001
  1.0490000e+000
  9.5100000e-001
  9.4000000e-001
  1.0190000e+000
  9.6000000e-001
  9.0900000e-001
  9.8400000e-001
  9.9300000e-001
  9.0600000e-001
  9.4900000e-001
  1.0320000e+000
  9.5000000e-001
  9.3900000e-001
  1.0400000e+000
  9.9600000e-001
  9.3200000e-001
  1.0040000e+000
  1.0340000e+000
  9.5800000e-001
  9.9600000e-001
  1.0820000e+000
  1.0000000e+000
  9.9900000e-001
  1.1180000e+000
  1.0680000e+000
  1.0120000e+000
  1.0970000e+000
  1.1230000e+000
  1.0230000e+000
  1.0590000e+000
  1.1600000e+000
  1.0490000e+000
  1.0390000e+000
  1.1560000e+000
  1.0920000e+000
  1.0370000e+000
  1.1120000e+000
  1.1280000e+000
  1.0370000e+000
  1.0730000e+000
  1.1590000e+000
  1.0430000e+000
  1.0440000e+000
  1.1750000e+000
  1.0960000e+000
  1.0270000e+000
  1.1200000e+000
  1.1430000e+000
  1.0290000e+000
  1.0620000e+000
  1.1760000e+000
  1.0620000e+000
  1.0240000e+000
  1.1360000e+000
  1.0810000e+000
  1.0050000e+000
  1.0910000e+000
  1.1250000e+000
  1.0200000e+000
  1.0580000e+000
  1.1520000e+000
  1.0370000e+000
  1.0280000e+000
  1.1370000e+000
  1.0780000e+000
  1.0180000e+000
  1.1070000e+000
  1.1330000e+000
  1.0220000e+000
  1.0480000e+000
  1.1380000e+000
  1.0250000e+000
  1.0170000e+000
  1.1350000e+000
  1.0720000e+000
  1.0130000e+000
  1.1150000e+000
  1.1320000e+000
  1.0190000e+000
  1.0660000e+000
  1.1600000e+000
  1.0480000e+000
  1.0330000e+000
  1.1550000e+000
  1.0880000e+000
  1.0300000e+000
  1.1230000e+000
  1.1360000e+000
  1.0220000e+000
  1.0760000e+000
  1.1910000e+000
  1.0660000e+000
  1.0590000e+000
  1.2080000e+000
  1.1130000e+000
  1.0340000e+000
  1.1220000e+000
  1.1330000e+000
  1.0180000e+000
  1.0490000e+000
  1.1160000e+000
  1.0030000e+000
  9.9300000e-001
  1.1030000e+000
  1.0480000e+000
  9.8100000e-001
  1.0530000e+000
  1.0760000e+000
  9.9500000e-001
  1.0300000e+000
  1.0980000e+000
  9.9300000e-001
  9.8900000e-001
  1.0960000e+000
  1.0350000e+000
  9.9300000e-001
  1.0930000e+000
  1.1570000e+000
  1.1560000e+000
  1.4060000e+000
  1.7280000e+000
  1.6520000e+000
  1.6080000e+000
  1.6370000e+000
  1.3170000e+000
  1.0420000e+000
  1.0200000e+000
  9.9100000e-001
  8.9500000e-001
  9.1500000e-001
  9.7800000e-001
  8.8500000e-001
  8.7200000e-001
  9.6300000e-001
  9.1700000e-001
  8.9200000e-001
  9.9400000e-001
  1.0270000e+000
  9.4400000e-001
  9.6500000e-001
  1.0230000e+000
  9.5800000e-001
  9.6300000e-001
  1.0580000e+000
  1.0190000e+000
  9.8000000e-001
  1.0740000e+000
  1.0960000e+000
  9.9500000e-001
  1.0150000e+000
  1.0980000e+000
  1.0190000e+000
  1.0120000e+000
  1.1080000e+000
  1.0710000e+000
  1.0300000e+000
  1.1400000e+000
  1.1640000e+000
  1.0420000e+000
  1.0810000e+000
  1.1910000e+000
  1.0730000e+000
  1.0640000e+000
  1.2030000e+000
  1.1120000e+000
  1.0470000e+000
  1.1490000e+000
  1.1890000e+000
  1.0870000e+000
  1.1360000e+000
  1.2380000e+000
  1.1220000e+000
  1.1270000e+000
  1.2450000e+000
  1.1540000e+000
  1.0760000e+000
  1.1740000e+000
  1.1690000e+000
  1.0390000e+000
  1.0580000e+000
  1.1180000e+000
  9.9600000e-001
  9.8600000e-001
  1.0820000e+000
  9.9500000e-001
  9.3400000e-001
  9.9900000e-001
  1.0050000e+000
  9.2700000e-001
  9.5600000e-001
  1.0120000e+000
  9.2400000e-001
  9.2500000e-001
  1.0320000e+000
  9.8300000e-001
  9.3000000e-001
  1.0080000e+000
  1.0170000e+000
  9.4200000e-001
  9.9800000e-001
  1.0840000e+000
  9.9500000e-001
  9.9100000e-001
  1.0980000e+000
  1.0370000e+000
  9.7800000e-001
  1.0690000e+000
  1.0790000e+000
  9.8000000e-001
  1.0280000e+000
  1.1360000e+000
  1.0320000e+000
  1.0180000e+000
  1.1380000e+000
  1.0770000e+000
  1.0190000e+000
  1.1030000e+000
  1.1200000e+000
  1.0190000e+000
  1.0710000e+000
  1.1740000e+000
  1.0520000e+000
  1.0480000e+000
  1.1770000e+000
  1.0930000e+000
  1.0280000e+000
  1.1080000e+000
  1.1230000e+000
  1.0380000e+000
  1.0630000e+000
  1.1260000e+000
  1.0420000e+000
  1.0450000e+000
  1.1520000e+000
  1.0820000e+000
  1.0240000e+000
  1.1030000e+000
  1.1270000e+000
  1.0320000e+000
  1.0710000e+000
  1.1590000e+000
  1.0520000e+000
  1.0370000e+000
  1.1380000e+000
  1.0660000e+000
  1.0090000e+000
  1.1250000e+000
  1.1270000e+000
  1.0140000e+000
  1.0610000e+000
  1.1520000e+000
  1.0330000e+000
  1.0290000e+000
  1.1570000e+000
  1.0670000e+000
  1.0140000e+000
  1.0950000e+000
  1.1110000e+000
  1.0230000e+000
  1.0860000e+000
  1.1670000e+000
  1.0470000e+000
  1.0340000e+000
  1.1400000e+000
  1.0680000e+000
  1.0130000e+000
  1.1160000e+000
  1.1300000e+000
  1.0220000e+000
  1.0720000e+000
  1.1700000e+000
  1.0490000e+000
  1.0370000e+000
  1.1510000e+000
  1.0830000e+000
  1.0430000e+000
  1.1640000e+000
  1.1800000e+000
  1.0630000e+000
  1.1030000e+000
  1.1810000e+000
  1.0480000e+000
  1.0470000e+000
  1.1690000e+000
  1.0720000e+000
  9.8600000e-001
  1.0540000e+000
  1.0680000e+000
  9.8400000e-001
  1.0130000e+000
  1.0770000e+000
  1.0050000e+000
  1.0190000e+000
  1.1320000e+000
  1.0580000e+000
  9.9400000e-001
  1.0640000e+000
  1.0690000e+000
  9.8400000e-001
  1.0280000e+000
  1.1070000e+000
  1.0230000e+000
  1.0390000e+000
  1.2330000e+000
  1.2970000e+000
  1.4390000e+000
  1.7290000e+000
  1.7620000e+000
  1.5240000e+000
  1.4200000e+000
  1.3010000e+000
  1.0180000e+000
  9.5400000e-001
  1.0120000e+000
  9.3500000e-001
  8.8500000e-001
  9.4400000e-001
  9.4100000e-001
  8.7100000e-001
  9.1100000e-001
  9.8100000e-001
  9.0600000e-001
  9.1600000e-001
  1.0090000e+000
  9.5300000e-001
  9.1700000e-001
  1.0050000e+000
  1.0230000e+000
  9.5400000e-001
  1.0020000e+000
  1.0770000e+000
  9.9300000e-001
  1.0040000e+000
  1.1230000e+000
  1.0560000e+000
  1.0150000e+000
  1.1300000e+000
  1.1310000e+000
  1.0100000e+000
  1.0390000e+000
  1.1200000e+000
  1.0190000e+000
  1.0230000e+000
  1.1490000e+000
  1.0830000e+000
  1.0380000e+000
  1.1380000e+000
  1.1590000e+000
  1.0690000e+000
  1.1300000e+000
  1.2340000e+000
  1.1000000e+000
  1.0970000e+000
  1.2380000e+000
  1.1470000e+000
  1.0810000e+000
  1.2040000e+000
  1.2040000e+000
  1.0790000e+000
  1.1250000e+000
  1.2250000e+000
  1.0840000e+000
  1.0660000e+000
  1.1810000e+000
  1.0840000e+000
  1.0190000e+000
  1.1100000e+000
  1.0890000e+000
  9.7300000e-001
  9.9400000e-001
  1.0430000e+000
  9.4500000e-001
  9.3500000e-001
  1.0190000e+000
  9.6600000e-001
  9.2400000e-001
  9.8400000e-001
  9.8800000e-001
  9.1900000e-001
  9.6600000e-001
  1.0380000e+000
  9.5500000e-001
  9.6100000e-001
  1.0570000e+000
  1.0020000e+000
  9.7300000e-001
  1.0500000e+000
  1.0500000e+000
  9.6900000e-001
  1.0170000e+000
  1.0950000e+000
  1.0070000e+000
  1.0020000e+000
  1.1150000e+000
  1.0570000e+000
  1.0170000e+000
  1.0920000e+000
  1.0870000e+000
  9.9900000e-001
  1.0620000e+000
  1.1490000e+000
  1.0320000e+000
  1.0340000e+000
  1.1610000e+000
  1.0920000e+000
  1.0430000e+000
  1.1550000e+000
  1.1460000e+000
  1.0350000e+000
  1.0790000e+000
  1.1560000e+000
  1.0400000e+000
  1.0290000e+000
  1.1270000e+000
  1.0580000e+000
  1.0080000e+000
  1.0960000e+000
  1.1180000e+000
  1.0320000e+000
  1.0970000e+000
  1.1760000e+000
  1.0420000e+000
  1.0380000e+000
  1.1470000e+000
  1.0740000e+000
  1.0130000e+000
  1.0920000e+000
  1.0910000e+000
  1.0130000e+000
  1.0630000e+000
  1.1570000e+000
  1.0400000e+000
  1.0500000e+000
  1.1700000e+000
  1.0730000e+000
  1.0120000e+000
  1.1070000e+000
  1.1130000e+000
  1.0190000e+000
  1.0660000e+000
  1.1490000e+000
  1.0370000e+000
  1.0420000e+000
  1.1710000e+000
  1.0740000e+000
  1.0220000e+000
  1.1490000e+000
  1.1770000e+000
  1.0760000e+000
  1.1360000e+000
  1.2110000e+000
  1.0630000e+000
  1.0530000e+000
  1.1810000e+000
  1.0790000e+000
  1.0170000e+000
  1.1180000e+000
  1.1030000e+000
  9.9300000e-001
  1.0290000e+000
  1.1030000e+000
  1.0020000e+000
  1.0170000e+000
  1.1030000e+000
  1.0130000e+000
  9.6500000e-001
  1.0610000e+000
  1.0640000e+000
  9.8900000e-001
  1.0380000e+000
  1.1220000e+000
  1.0220000e+000
  1.0220000e+000
  1.1490000e+000
  1.0830000e+000
  1.0530000e+000
  1.2830000e+000
  1.4650000e+000
  1.4870000e+000
  1.6270000e+000
  1.6830000e+000
  1.3760000e+000
  1.1500000e+000
  1.0960000e+000
  9.5900000e-001
  8.9600000e-001
  9.7800000e-001
  9.8100000e-001
  9.0200000e-001
  9.3600000e-001
  9.8800000e-001
  9.2000000e-001
  9.4100000e-001
  1.0370000e+000
  9.6300000e-001
  9.2000000e-001
  9.9600000e-001
  1.0090000e+000
  9.5100000e-001
  1.0150000e+000
  1.0880000e+000
  9.9800000e-001
  1.0040000e+000
  1.1280000e+000
  1.0570000e+000
  9.9600000e-001
  1.0760000e+000
  1.0690000e+000
  9.9800000e-001
  1.0540000e+000
  1.1330000e+000
  1.0290000e+000
  1.0440000e+000
  1.2000000e+000
  1.1130000e+000
  1.0470000e+000
  1.1500000e+000
  1.1500000e+000
  1.0570000e+000
  1.1250000e+000
  1.2080000e+000
  1.0790000e+000
  1.1000000e+000
  1.2440000e+000
  1.1520000e+000
  1.0970000e+000
  1.2190000e+000
  1.2100000e+000
  1.1020000e+000
  1.1770000e+000
  1.2580000e+000
  1.1080000e+000
  1.1020000e+000
  1.2260000e+000
  1.1130000e+000
  1.0400000e+000
  1.1110000e+000
  1.0810000e+000
  9.8000000e-001
  9.9500000e-001
  1.0320000e+000
  9.3100000e-001
  9.3900000e-001
  1.0250000e+000
  9.4700000e-001
  9.0700000e-001
  9.8300000e-001
  9.6800000e-001
  8.8500000e-001
  9.3000000e-001
  9.9500000e-001
  9.2000000e-001
  9.2900000e-001
  1.0150000e+000
  9.5500000e-001
  9.2500000e-001
  1.0090000e+000
  1.0090000e+000
  9.4500000e-001
  1.0100000e+000
  1.1020000e+000
  1.0080000e+000
  1.0230000e+000
  1.1430000e+000
  1.0500000e+000
  9.9800000e-001
  1.0830000e+000
  1.0870000e+000
  1.0020000e+000
  1.0590000e+000
  1.1250000e+000
  1.0140000e+000
  1.0250000e+000
  1.1450000e+000
  1.0710000e+000
  1.0320000e+000
  1.1360000e+000
  1.1500000e+000
  1.0580000e+000
  1.1060000e+000
  1.1700000e+000
  1.0440000e+000
  1.0470000e+000
  1.1650000e+000
  1.0580000e+000
  1.0040000e+000
  1.1030000e+000
  1.1150000e+000
  1.0150000e+000
  1.0730000e+000
  1.1620000e+000
  1.0380000e+000
  1.0340000e+000
  1.1560000e+000
  1.0710000e+000
  1.0150000e+000
  1.0980000e+000
  1.1060000e+000
  1.0330000e+000
  1.0950000e+000
  1.1500000e+000
  1.0280000e+000
  1.0250000e+000
  1.1350000e+000
  1.0590000e+000
  1.0180000e+000
  1.1280000e+000
  1.1210000e+000
  1.0270000e+000
  1.0830000e+000
  1.1620000e+000
  1.0480000e+000
  1.0570000e+000
  1.2030000e+000
  1.1160000e+000
  1.0590000e+000
  1.1660000e+000
  1.1330000e+000
  1.0330000e+000
  1.0910000e+000
  1.1640000e+000
  1.0440000e+000
  1.0390000e+000
  1.1360000e+000
  1.0470000e+000
  1.0040000e+000
  1.1030000e+000
  1.0830000e+000
  9.8300000e-001
  1.0280000e+000
  1.0790000e+000
  9.8600000e-001
  1.0040000e+000
  1.1180000e+000
  1.0320000e+000
  9.7800000e-001
  1.0690000e+000
  1.0810000e+000
  1.0080000e+000
  1.0740000e+000
  1.1810000e+000
  1.0720000e+000
  1.1520000e+000
  1.4640000e+000
  1.5200000e+000
  1.5180000e+000
  1.6250000e+000
  1.4500000e+000
  1.1410000e+000
  1.0540000e+000
  1.0330000e+000
  9.3200000e-001
  9.3500000e-001
  1.0170000e+000
  9.4900000e-001
  9.1900000e-001
  1.0020000e+000
  9.9600000e-001
  9.2900000e-001
  9.8000000e-001
  1.0390000e+000
  9.5400000e-001
  9.7000000e-001
  1.0870000e+000
  1.0130000e+000
  9.6600000e-001
  1.0530000e+000
  1.0450000e+000
  9.7100000e-001
  1.0280000e+000
  1.0860000e+000
  9.9100000e-001
  1.0070000e+000
  1.1170000e+000
  1.0530000e+000
  1.0200000e+000
  1.1210000e+000
  1.1150000e+000
  1.0370000e+000
  1.1080000e+000
  1.1950000e+000
  1.0670000e+000
  1.0820000e+000
  1.2090000e+000
  1.0890000e+000
  1.0440000e+000
  1.1840000e+000
  1.1740000e+000
  1.0690000e+000
  1.1460000e+000
  1.2260000e+000
  1.0890000e+000
  1.1120000e+000
  1.2730000e+000
  1.1720000e+000
  1.1130000e+000
  1.2390000e+000
  1.2260000e+000
  1.0980000e+000
  1.1640000e+000
  1.2090000e+000
  1.0530000e+000
  1.0480000e+000
  1.1260000e+000
  1.0100000e+000
  9.5500000e-001
  1.0250000e+000
  1.0050000e+000
  9.2000000e-001
  9.6100000e-001
  1.0000000e+000
  9.0300000e-001
  9.0500000e-001
  9.9500000e-001
  9.3200000e-001
  9.0100000e-001
  9.8400000e-001
  9.8300000e-001
  9.2100000e-001
  9.6100000e-001
  1.0080000e+000
  9.4100000e-001
  9.6500000e-001
  1.0790000e+000
  1.0090000e+000
  9.7100000e-001
  1.0570000e+000
  1.0560000e+000
  9.8300000e-001
  1.0430000e+000
  1.0970000e+000
  9.9500000e-001
  1.0240000e+000
  1.1330000e+000
  1.0370000e+000
  1.0230000e+000
  1.1570000e+000
  1.1310000e+000
  1.0250000e+000
  1.0690000e+000
  1.1460000e+000
  1.0340000e+000
  1.0450000e+000
  1.1720000e+000
  1.0690000e+000
  1.0150000e+000
  1.1070000e+000
  1.0950000e+000
  1.0270000e+000
  1.0840000e+000
  1.1540000e+000
  1.0330000e+000
  1.0420000e+000
  1.1790000e+000
  1.0830000e+000
  1.0230000e+000
  1.1250000e+000
  1.1100000e+000
  1.0180000e+000
  1.0830000e+000
  1.1520000e+000
  1.0370000e+000
  1.0350000e+000
  1.1460000e+000
  1.0580000e+000
  1.0150000e+000
  1.1110000e+000
  1.0970000e+000
  1.0000000e+000
  1.0610000e+000
  1.1450000e+000
  1.0380000e+000
  1.0390000e+000
  1.1750000e+000
  1.0690000e+000
  1.0270000e+000
  1.1360000e+000
  1.1060000e+000
  1.0150000e+000
  1.0830000e+000
  1.1500000e+000
  1.0340000e+000
  1.0450000e+000
  1.1890000e+000
  1.1000000e+000
  1.0570000e+000
  1.1890000e+000
  1.1620000e+000
  1.0420000e+000
  1.1050000e+000
  1.1750000e+000
  1.0530000e+000
  1.0500000e+000
  1.1470000e+000
  1.0430000e+000
  9.9500000e-001
  1.0860000e+000
  1.0690000e+000
  9.9500000e-001
  1.0400000e+000
  1.1050000e+000
  1.0080000e+000
  1.0180000e+000
  1.1180000e+000
  1.0380000e+000
  9.9600000e-001
  1.0880000e+000
  1.0820000e+000
  9.8800000e-001
  1.0380000e+000
  1.1020000e+000
  1.0190000e+000
  1.0430000e+000
  1.2010000e+000
  1.1870000e+000
  1.2980000e+000
  1.6180000e+000
  1.6720000e+000
  1.5150000e+000
  1.4920000e+000
  1.3850000e+000
  1.0710000e+000
  9.9500000e-001
  1.0350000e+000
  9.4200000e-001
  8.9100000e-001
  9.6400000e-001
  9.4700000e-001
  8.8700000e-001
  9.4100000e-001
  9.9500000e-001
  9.1500000e-001
  9.3700000e-001
  1.0340000e+000
  9.6800000e-001
  9.4600000e-001
  1.0450000e+000
  1.0390000e+000
  9.7300000e-001
  1.0300000e+000
  1.0770000e+000
  9.7900000e-001
  9.9400000e-001
  1.1010000e+000
  1.0350000e+000
  9.9900000e-001
  1.1080000e+000
  1.1060000e+000
  1.0220000e+000
  1.0910000e+000
  1.1550000e+000
  1.0240000e+000
  1.0250000e+000
  1.1400000e+000
  1.0530000e+000
  1.0340000e+000
  1.1690000e+000
  1.1590000e+000
  1.0520000e+000
  1.1380000e+000
  1.2430000e+000
  1.1100000e+000
  1.1170000e+000
  1.2520000e+000
  1.1350000e+000
  1.0860000e+000
  1.2310000e+000
  1.2110000e+000
  1.0890000e+000
  1.1430000e+000
  1.1960000e+000
  1.0710000e+000
  1.0890000e+000
  1.1810000e+000
  1.0560000e+000
  1.0150000e+000
  1.1110000e+000
  1.0610000e+000
  9.6900000e-001
  1.0070000e+000
  1.0420000e+000
  9.3200000e-001
  9.3900000e-001
  1.0170000e+000
  9.3700000e-001
  9.0900000e-001
  9.8800000e-001
  9.8000000e-001
  9.1900000e-001
  9.7600000e-001
  1.0240000e+000
  9.2500000e-001
  9.3500000e-001
  1.0390000e+000
  9.9100000e-001
  9.6300000e-001
  1.0520000e+000
  1.0330000e+000
  9.6800000e-001
  1.0370000e+000
  1.1000000e+000
  9.9500000e-001
  1.0120000e+000
  1.1150000e+000
  1.0300000e+000
  1.0100000e+000
  1.1380000e+000
  1.1260000e+000
  1.0250000e+000
  1.0720000e+000
  1.1260000e+000
  1.0200000e+000
  1.0380000e+000
  1.1620000e+000
  1.0630000e+000
  1.0180000e+000
  1.1350000e+000
  1.1070000e+000
  1.0150000e+000
  1.0890000e+000
  1.1700000e+000
  1.0610000e+000
  1.0730000e+000
  1.1810000e+000
  1.0790000e+000
  1.0500000e+000
  1.1410000e+000
  1.0680000e+000
  9.8000000e-001
  1.0590000e+000
  1.1330000e+000
  1.0330000e+000
  1.0490000e+000
  1.1560000e+000
  1.0610000e+000
  1.0230000e+000
  1.1280000e+000
  1.1050000e+000
  1.0250000e+000
  1.1080000e+000
  1.1660000e+000
  1.0320000e+000
  1.0420000e+000
  1.1490000e+000
  1.0440000e+000
  9.9900000e-001
  1.0910000e+000
  1.0720000e+000
  1.0020000e+000
  1.0830000e+000
  1.1560000e+000
  1.0350000e+000
  1.0520000e+000
  1.1740000e+000
  1.0710000e+000
  1.0340000e+000
  1.1550000e+000
  1.1170000e+000
  1.0120000e+000
  1.0680000e+000
  1.1270000e+000
  1.0130000e+000
  1.0340000e+000
  1.1560000e+000
  1.0580000e+000
  1.0470000e+000
  1.1670000e+000
  1.1120000e+000
  1.0320000e+000
  1.1110000e+000
  1.1900000e+000
  1.0630000e+000
  1.0770000e+000
  1.1920000e+000
  1.0770000e+000
  1.0380000e+000
  1.1420000e+000
  1.1150000e+000
  1.0140000e+000
  1.0620000e+000
  1.0980000e+000
  9.7500000e-001
  9.9300000e-001
  1.1100000e+000
  1.0440000e+000
  1.0000000e+000
  1.0950000e+000
  1.0590000e+000
  9.7900000e-001
  1.0420000e+000
  1.0970000e+000
  1.0020000e+000
  1.0040000e+000
  1.0930000e+000
  1.0180000e+000
  1.0090000e+000
  1.1320000e+000
  1.1350000e+000
  1.1120000e+000
  1.4260000e+000
  1.7240000e+000
  1.6690000e+000
  1.6790000e+000
  1.6740000e+000
  1.3160000e+000
  1.0480000e+000
  1.0290000e+000
  9.6900000e-001
  8.8100000e-001
  9.2100000e-001
  9.6500000e-001
  8.8500000e-001
  9.0700000e-001
  9.7600000e-001
  9.0500000e-001
  8.9500000e-001
  9.8300000e-001
  9.6900000e-001
  9.1600000e-001
  9.7400000e-001
  1.0240000e+000
  9.4600000e-001
  9.7400000e-001
  1.0590000e+000
  9.7600000e-001
  9.6800000e-001
  1.0840000e+000
  1.0660000e+000
  9.8800000e-001
  1.0630000e+000
  1.1490000e+000
  1.0290000e+000
  1.0300000e+000
  1.1360000e+000
  1.0470000e+000
  1.0150000e+000
  1.1320000e+000
  1.1110000e+000
  1.0420000e+000
  1.1210000e+000
  1.1750000e+000
  1.0470000e+000
  1.0720000e+000
  1.1860000e+000
  1.0680000e+000
  1.0520000e+000
  1.2160000e+000
  1.1960000e+000
  1.1010000e+000
  1.1990000e+000
  1.2480000e+000
  1.0880000e+000
  1.1030000e+000
  1.2500000e+000
  1.1210000e+000
  1.0680000e+000
  1.1950000e+000
  1.1330000e+000
  1.0250000e+000
  1.0840000e+000
  1.1160000e+000
  9.8400000e-001
  9.9100000e-001
  1.0690000e+000
  9.7800000e-001
  9.4200000e-001
  1.0280000e+000
  9.9500000e-001
  9.2400000e-001
  9.7000000e-001
  1.0120000e+000
  9.2500000e-001
  9.3000000e-001
  1.0180000e+000
  9.5900000e-001
  9.4200000e-001
  1.0430000e+000
  1.0180000e+000
  9.4600000e-001
  1.0050000e+000
  1.0530000e+000
  9.6800000e-001
  9.9800000e-001
  1.1020000e+000
  1.0130000e+000
  9.9400000e-001
  1.1080000e+000
  1.0580000e+000
  9.8000000e-001
  1.0670000e+000
  1.1330000e+000
  1.0270000e+000
  1.0400000e+000
  1.1370000e+000
  1.0340000e+000
  1.0120000e+000
  1.1410000e+000
  1.1180000e+000
  1.0240000e+000
  1.0720000e+000
  1.1030000e+000
  1.0120000e+000
  1.0570000e+000
  1.1790000e+000
  1.0670000e+000
  1.0330000e+000
  1.1500000e+000
  1.1110000e+000
  1.0200000e+000
  1.0950000e+000
  1.1570000e+000
  1.0470000e+000
  1.0540000e+000
  1.1750000e+000
  1.0640000e+000
  1.0320000e+000
  1.1360000e+000
  1.0820000e+000
  9.9900000e-001
  1.0970000e+000
  1.1660000e+000
  1.0400000e+000
  1.0570000e+000
  1.1610000e+000
  1.0560000e+000
  1.0340000e+000
  1.1470000e+000
  1.1050000e+000
  1.0130000e+000
  1.0830000e+000
  1.1470000e+000
  1.0420000e+000
  1.0530000e+000
  1.1410000e+000
  1.0330000e+000
  1.0030000e+000
  1.1050000e+000
  1.0840000e+000
  1.0130000e+000
  1.0920000e+000
  1.1430000e+000
  1.0200000e+000
  1.0480000e+000
  1.1590000e+000
  1.0590000e+000
  1.0300000e+000
  1.1400000e+000
  1.0970000e+000
  1.0070000e+000
  1.0870000e+000
  1.1540000e+000
  1.0440000e+000
  1.0560000e+000
  1.1610000e+000
  1.0560000e+000
  1.0250000e+000
  1.1520000e+000
  1.1280000e+000
  1.0530000e+000
  1.1520000e+000
  1.1950000e+000
  1.0370000e+000
  1.0570000e+000
  1.1760000e+000
  1.0680000e+000
  1.0320000e+000
  1.1320000e+000
  1.0720000e+000
  9.9100000e-001
  1.0570000e+000
  1.0910000e+000
  9.9600000e-001
  1.0150000e+000
  1.1000000e+000
  1.0130000e+000
  9.9000000e-001
  1.0930000e+000
  1.0630000e+000
  9.9100000e-001
  1.0610000e+000
  1.0980000e+000
  9.8800000e-001
  1.0100000e+000
  1.1250000e+000
  1.0490000e+000
  1.0740000e+000
  1.3510000e+000
  1.5250000e+000
  1.6020000e+000
  1.7760000e+000
  1.7600000e+000
  1.4240000e+000
  1.2250000e+000
  1.1470000e+000
  9.6500000e-001
  9.0700000e-001
  9.7000000e-001
  9.3100000e-001
  8.6500000e-001
  9.2500000e-001
  9.6500000e-001
  8.8100000e-001
  8.9900000e-001
  9.9000000e-001
  9.2500000e-001
  9.0000000e-001
  9.9400000e-001
  9.7800000e-001
  9.2600000e-001
  1.0000000e+000
  1.0580000e+000
  9.8800000e-001
  1.0140000e+000
  1.0860000e+000
  1.0020000e+000
  9.9300000e-001
  1.1170000e+000
  1.0870000e+000
  1.0040000e+000
  1.0780000e+000
  1.1200000e+000
  1.0080000e+000
  1.0440000e+000
  1.1670000e+000
  1.0570000e+000
  1.0200000e+000
  1.1280000e+000
  1.0960000e+000
  1.0390000e+000
  1.1560000e+000
  1.2240000e+000
  1.0830000e+000
  1.1130000e+000
  1.2400000e+000
  1.1220000e+000
  1.0970000e+000
  1.2350000e+000
  1.1820000e+000
  1.0880000e+000
  1.1810000e+000
  1.2200000e+000
  1.0860000e+000
  1.1150000e+000
  1.2380000e+000
  1.0960000e+000
  1.0470000e+000
  1.1550000e+000
  1.0980000e+000
  1.0080000e+000
  1.0630000e+000
  1.0810000e+000
  9.6600000e-001
  9.6900000e-001
  1.0330000e+000
  9.4100000e-001
  9.1700000e-001
  9.9500000e-001
  9.5400000e-001
  9.0600000e-001
  9.7400000e-001
  1.0150000e+000
  9.3200000e-001
  9.5900000e-001
  1.0440000e+000
  9.4900000e-001
  9.3600000e-001
  1.0540000e+000
  1.0330000e+000
  9.7100000e-001
  1.0440000e+000
  1.0780000e+000
  9.7900000e-001
  1.0020000e+000
  1.0980000e+000
  1.0180000e+000
  9.9400000e-001
  1.1080000e+000
  1.0630000e+000
  9.9400000e-001
  1.0620000e+000
  1.1030000e+000
  1.0180000e+000
  1.0560000e+000
  1.1690000e+000
  1.0470000e+000
  1.0200000e+000
  1.1400000e+000
  1.1010000e+000
  1.0270000e+000
  1.0930000e+000
  1.1360000e+000
  1.0350000e+000
  1.0690000e+000
  1.1770000e+000
  1.0540000e+000
  1.0140000e+000
  1.1120000e+000
  1.0790000e+000
  1.0170000e+000
  1.1070000e+000
  1.1790000e+000
  1.0620000e+000
  1.0740000e+000
  1.1570000e+000
  1.0500000e+000
  1.0330000e+000
  1.1450000e+000
  1.0920000e+000
  1.0150000e+000
  1.0870000e+000
  1.1320000e+000
  1.0200000e+000
  1.0570000e+000
  1.1520000e+000
  1.0330000e+000
  1.0070000e+000
  1.1310000e+000
  1.0840000e+000
  1.0300000e+000
  1.1280000e+000
  1.1540000e+000
  1.0290000e+000
  1.0570000e+000
  1.1660000e+000
  1.0470000e+000
  1.0180000e+000
  1.1210000e+000
  1.0820000e+000
  1.0180000e+000
  1.0910000e+000
  1.1260000e+000
  1.0070000e+000
  1.0200000e+000
  1.1360000e+000
  1.0480000e+000
  1.0350000e+000
  1.1790000e+000
  1.1120000e+000
  1.0220000e+000
  1.1080000e+000
  1.1610000e+000
  1.0570000e+000
  1.0960000e+000
  1.2190000e+000
  1.0880000e+000
  1.0490000e+000
  1.1720000e+000
  1.1200000e+000
  1.0220000e+000
  1.0880000e+000
  1.1270000e+000
  1.0080000e+000
  1.0130000e+000
  1.0970000e+000
  1.0170000e+000
  1.0070000e+000
  1.1070000e+000
  1.0470000e+000
  9.7500000e-001
  1.0400000e+000
  1.0710000e+000
  9.7400000e-001
  1.0070000e+000
  1.1120000e+000
  1.0290000e+000
  1.0100000e+000
  1.1120000e+000
  1.0710000e+000
  1.0070000e+000
  1.1010000e+000
  1.2080000e+000
  1.2060000e+000
  1.4310000e+000
  1.6940000e+000
  1.5900000e+000
  1.5020000e+000
  1.4790000e+000
  1.1870000e+000
  9.6900000e-001
  9.8000000e-001
  9.9400000e-001
  9.0900000e-001
  9.2600000e-001
  1.0020000e+000
  9.2500000e-001
  9.1500000e-001
  1.0120000e+000
  9.7900000e-001
  9.2500000e-001
  9.8500000e-001
  1.0070000e+000
  9.2900000e-001
  9.6900000e-001
  1.0530000e+000
  9.6900000e-001
  9.6800000e-001
  1.0870000e+000
  1.0420000e+000
  9.8300000e-001
  1.0580000e+000
  1.1000000e+000
  1.0100000e+000
  1.0450000e+000
  1.1380000e+000
  1.0340000e+000
  1.0180000e+000
  1.1370000e+000
  1.0960000e+000
  1.0300000e+000
  1.1220000e+000
  1.1620000e+000
  1.0440000e+000
  1.0690000e+000
  1.1860000e+000
  1.0720000e+000
  1.0710000e+000
  1.2240000e+000
  1.1610000e+000
  1.0780000e+000
  1.1920000e+000
  1.2240000e+000
  1.0830000e+000
  1.1310000e+000
  1.2770000e+000
  1.1330000e+000
  1.1030000e+000
  1.2450000e+000
  1.1840000e+000
  1.0730000e+000
  1.1420000e+000
  1.1550000e+000
  1.0180000e+000
  1.0230000e+000
  1.1000000e+000
  9.9100000e-001
  9.5600000e-001
  1.0370000e+000
  9.8400000e-001
  9.1200000e-001
  9.6100000e-001
  9.8100000e-001
  9.0900000e-001
  9.3500000e-001
  1.0080000e+000
  9.2600000e-001
  9.1100000e-001
  1.0030000e+000
  9.6500000e-001
  9.1700000e-001
  9.9000000e-001
  1.0200000e+000
  9.2900000e-001
  9.6900000e-001
  1.0760000e+000
  1.0020000e+000
  9.8500000e-001
  1.0780000e+000
  1.0280000e+000
  9.8100000e-001
  1.0780000e+000
  1.1120000e+000
  1.0130000e+000
  1.0430000e+000
  1.1270000e+000
  1.0320000e+000
  1.0230000e+000
  1.1280000e+000
  1.0760000e+000
  1.0100000e+000
  1.1110000e+000
  1.1510000e+000
  1.0380000e+000
  1.0810000e+000
  1.1750000e+000
  1.0630000e+000
  1.0430000e+000
  1.1540000e+000
  1.0980000e+000
  1.0250000e+000
  1.1110000e+000
  1.1330000e+000
  1.0220000e+000
  1.0620000e+000
  1.1510000e+000
  1.0300000e+000
  1.0200000e+000
  1.1430000e+000
  1.0780000e+000
  1.0040000e+000
  1.0860000e+000
  1.1170000e+000
  1.0130000e+000
  1.0690000e+000
  1.1820000e+000
  1.0490000e+000
  1.0240000e+000
  1.1250000e+000
  1.0830000e+000
  1.0240000e+000
  1.1080000e+000
  1.1280000e+000
  1.0120000e+000
  1.0400000e+000
  1.1560000e+000
  1.0580000e+000
  1.0300000e+000
  1.1370000e+000
  1.0820000e+000
  1.0150000e+000
  1.1030000e+000
  1.1520000e+000
  1.0400000e+000
  1.0680000e+000
  1.1540000e+000
  1.0400000e+000
  1.0420000e+000
  1.1650000e+000
  1.0820000e+000
  1.0170000e+000
  1.1050000e+000
  1.1260000e+000
  1.0250000e+000
  1.0830000e+000
  1.2050000e+000
  1.0890000e+000
  1.0730000e+000
  1.1940000e+000
  1.1060000e+000
  1.0390000e+000
  1.1330000e+000
  1.1620000e+000
  1.0340000e+000
  1.0470000e+000
  1.1130000e+000
  1.0000000e+000
  9.8000000e-001
  1.0740000e+000
  1.0330000e+000
  9.9100000e-001
  1.0830000e+000
  1.1110000e+000
  9.9900000e-001
  1.0270000e+000
  1.1170000e+000
  1.0030000e+000
  9.7800000e-001
  1.0810000e+000
  1.0450000e+000
  9.9600000e-001
  1.0660000e+000
  1.1170000e+000
  1.0390000e+000
  1.1450000e+000
  1.4020000e+000
  1.4290000e+000
  1.5280000e+000
  1.6950000e+000
  1.4970000e+000
  1.2280000e+000
  1.1460000e+000
  1.0570000e+000
  9.2000000e-001
  9.3100000e-001
  9.9400000e-001
  9.1700000e-001
  9.1900000e-001
  1.0220000e+000
  9.8400000e-001
  9.1900000e-001
  9.7400000e-001
  9.9000000e-001
  9.2600000e-001
  9.7600000e-001
  1.0570000e+000
  9.7500000e-001
  9.6900000e-001
  1.0740000e+000
  1.0270000e+000
  9.7400000e-001
  1.0680000e+000
  1.0930000e+000
  9.8500000e-001
  1.0130000e+000
  1.1120000e+000
  1.0350000e+000
  1.0340000e+000
  1.1700000e+000
  1.1020000e+000
  1.0270000e+000
  1.1110000e+000
  1.1330000e+000
  1.0250000e+000
  1.0720000e+000
  1.1960000e+000
  1.0670000e+000
  1.0530000e+000
  1.1750000e+000
  1.1110000e+000
  1.0490000e+000
  1.1660000e+000
  1.2240000e+000
  1.1050000e+000
  1.1640000e+000
  1.2800000e+000
  1.1310000e+000
  1.1100000e+000
  1.2580000e+000
  1.1670000e+000
  1.0810000e+000
  1.1660000e+000
  1.1890000e+000
  1.0580000e+000
  1.0810000e+000
  1.1520000e+000
  1.0280000e+000
  9.9600000e-001
  1.0670000e+000
  9.9100000e-001
  9.2000000e-001
  9.8500000e-001
  1.0030000e+000
  9.1400000e-001
  9.4600000e-001
  1.0090000e+000
  9.2000000e-001
  9.0600000e-001
  9.8600000e-001
  9.4600000e-001
  9.1400000e-001
  9.8800000e-001
  1.0040000e+000
  9.2200000e-001
  9.6900000e-001
  1.0620000e+000
  9.8100000e-001
  9.6500000e-001
  1.0760000e+000
  1.0340000e+000
  9.7300000e-001
  1.0590000e+000
  1.0830000e+000
  9.9800000e-001
  1.0450000e+000
  1.1380000e+000
  1.0240000e+000
  1.0200000e+000
  1.1450000e+000
  1.0660000e+000
  9.9800000e-001
  1.1160000e+000
  1.1450000e+000
  1.0280000e+000
  1.0570000e+000
  1.1420000e+000
  1.0440000e+000
  1.0430000e+000
  1.1650000e+000
  1.0960000e+000
  1.0320000e+000
  1.1300000e+000
  1.1500000e+000
  1.0350000e+000
  1.0720000e+000
  1.1850000e+000
  1.0630000e+000
  1.0440000e+000
  1.1540000e+000
  1.0780000e+000
  1.0150000e+000
  1.0980000e+000
  1.1080000e+000
  1.0120000e+000
  1.0520000e+000
  1.1550000e+000
  1.0480000e+000
  1.0370000e+000
  1.1600000e+000
  1.0760000e+000
  1.0100000e+000
  1.1050000e+000
  1.1260000e+000
  1.0140000e+000
  1.0440000e+000
  1.1380000e+000
  1.0370000e+000
  1.0340000e+000
  1.1560000e+000
  1.0830000e+000
  1.0150000e+000
  1.0960000e+000
  1.1070000e+000
  1.0140000e+000
  1.0640000e+000
  1.1770000e+000
  1.0670000e+000
  1.0440000e+000
  1.1540000e+000
  1.0780000e+000
  1.0030000e+000
  1.0760000e+000
  1.1200000e+000
  1.0240000e+000
  1.0660000e+000
  1.1660000e+000
  1.0520000e+000
  1.0430000e+000
  1.1640000e+000
  1.0910000e+000
  1.0220000e+000
  1.1210000e+000
  1.1460000e+000
  1.0520000e+000
  1.1070000e+000
  1.2190000e+000
  1.1010000e+000
  1.0660000e+000
  1.1610000e+000
  1.0740000e+000
  1.0050000e+000
  1.0780000e+000
  1.0790000e+000
  9.8900000e-001
  1.0320000e+000
  1.1180000e+000
  1.0090000e+000
  9.9500000e-001
  1.1180000e+000
  1.0680000e+000
  9.9800000e-001
  1.0590000e+000
  1.0630000e+000
  9.9300000e-001
  1.0480000e+000
  1.1330000e+000
  1.0080000e+000
  9.9600000e-001
  1.1150000e+000
  1.0780000e+000
  1.0590000e+000
  1.2700000e+000
  1.4690000e+000
  1.5330000e+000
  1.6950000e+000
  1.7860000e+000
  1.4890000e+000
  1.2350000e+000
  1.1650000e+000
  9.9800000e-001
  9.0900000e-001
  9.7100000e-001
  9.7000000e-001
  8.7600000e-001
  9.0100000e-001
  9.6300000e-001
  8.9600000e-001
  9.0300000e-001
  9.9600000e-001
  9.5100000e-001
  9.1200000e-001
  9.9400000e-001
  1.0050000e+000
  9.2600000e-001
  9.8400000e-001
  1.0690000e+000
  9.8500000e-001
  9.9100000e-001
  1.1020000e+000
  1.0370000e+000
  9.8500000e-001
  1.0690000e+000
  1.0950000e+000
  1.0090000e+000
  1.0610000e+000
  1.1380000e+000
  1.0230000e+000
  1.0150000e+000
  1.1410000e+000
  1.0680000e+000
  1.0190000e+000
  1.1170000e+000
  1.1350000e+000
  1.0340000e+000
  1.0930000e+000
  1.1940000e+000
  1.0760000e+000
  1.0760000e+000
  1.2280000e+000
  1.1600000e+000
  1.1110000e+000
  1.2130000e+000
  1.2050000e+000
  1.0860000e+000
  1.1590000e+000
  1.2590000e+000
  1.1080000e+000
  1.0980000e+000
  1.2190000e+000
  1.1120000e+000
  1.0330000e+000
  1.1170000e+000
  1.1220000e+000
  1.0050000e+000
  1.0450000e+000
  1.1110000e+000
  9.8000000e-001
  9.5400000e-001
  1.0330000e+000
  9.7000000e-001
  9.1400000e-001
  9.8300000e-001
  9.8300000e-001
  9.0500000e-001
  9.5000000e-001
  1.0250000e+000
  9.4400000e-001
  9.4100000e-001
  1.0450000e+000
  9.8800000e-001
  9.3600000e-001
  1.0170000e+000
  1.0430000e+000
  9.6500000e-001
  1.0130000e+000
  1.0780000e+000
  9.8800000e-001
  9.9500000e-001
  1.1100000e+000
  1.0450000e+000
  9.8600000e-001
  1.0630000e+000
  1.0820000e+000
  1.0070000e+000
  1.0490000e+000
  1.1260000e+000
  1.0250000e+000
  1.0350000e+000
  1.1710000e+000
  1.0730000e+000
  1.0180000e+000
  1.1250000e+000
  1.1220000e+000
  1.0170000e+000
  1.0660000e+000
  1.1620000e+000
  1.0580000e+000
  1.0490000e+000
  1.1720000e+000
  1.0790000e+000
  1.0190000e+000
  1.1170000e+000
  1.1170000e+000
  1.0070000e+000
  1.0530000e+000
  1.1420000e+000
  1.0320000e+000
  1.0370000e+000
  1.1610000e+000
  1.0780000e+000
  1.0240000e+000
  1.1320000e+000
  1.1360000e+000
  1.0300000e+000
  1.0740000e+000
  1.1520000e+000
  1.0330000e+000
  1.0270000e+000
  1.1570000e+000
  1.0910000e+000
  1.0300000e+000
  1.1180000e+000
  1.1210000e+000
  1.0330000e+000
  1.0780000e+000
  1.1570000e+000
  1.0270000e+000
  1.0180000e+000
  1.1250000e+000
  1.0620000e+000
  1.0270000e+000
  1.1320000e+000
  1.1320000e+000
  1.0190000e+000
  1.0500000e+000
  1.1520000e+000
  1.0480000e+000
  1.0610000e+000
  1.1770000e+000
  1.0760000e+000
  1.0240000e+000
  1.1230000e+000
  1.1080000e+000
  1.0130000e+000
  1.0780000e+000
  1.1770000e+000
  1.0400000e+000
  1.0140000e+000
  1.1160000e+000
  1.0400000e+000
  1.0100000e+000
  1.1300000e+000
  1.1380000e+000
  1.0200000e+000
  1.0870000e+000
  1.2160000e+000
  1.1050000e+000
  1.0780000e+000
  1.1920000e+000
  1.1060000e+000
  1.0390000e+000
  1.1400000e+000
  1.1280000e+000
  1.0120000e+000
  1.0400000e+000
  1.0920000e+000
  9.9300000e-001
  9.9300000e-001
  1.0890000e+000
  1.0240000e+000
  9.8300000e-001
  1.0720000e+000
  1.0770000e+000
  9.9100000e-001
  1.0470000e+000
  1.1210000e+000
  1.0020000e+000
  9.9600000e-001
  1.1130000e+000
  1.0450000e+000
  9.9000000e-001
  1.0780000e+000
  1.0770000e+000
  1.0120000e+000
  1.1310000e+000
  1.3860000e+000
  1.4690000e+000
  1.6310000e+000
  1.8180000e+000
  1.6300000e+000
  1.3850000e+000
  1.2830000e+000
  1.0880000e+000
  9.2100000e-001
  9.3900000e-001
  9.8900000e-001
  8.8700000e-001
  8.7000000e-001
  9.5900000e-001
  9.1500000e-001
  8.7700000e-001
  9.5600000e-001
  9.6900000e-001
  9.1200000e-001
  9.6800000e-001
  1.0270000e+000
  9.3400000e-001
  9.4600000e-001
  1.0580000e+000
  1.0040000e+000
  9.6300000e-001
  1.0400000e+000
  1.0430000e+000
  9.8400000e-001
  1.0530000e+000
  1.1310000e+000
  1.0230000e+000
  1.0200000e+000
  1.1230000e+000
  1.0400000e+000
  1.0140000e+000
  1.1370000e+000
  1.1270000e+000
  1.0180000e+000
  1.0760000e+000
  1.1590000e+000
  1.0420000e+000
  1.0560000e+000
  1.1910000e+000
  1.1000000e+000
  1.0520000e+000
  1.1940000e+000
  1.2110000e+000
  1.0890000e+000
  1.1410000e+000
  1.2260000e+000
  1.0830000e+000
  1.0870000e+000
  1.2500000e+000
  1.1550000e+000
  1.0720000e+000
  1.1760000e+000
  1.1610000e+000
  1.0580000e+000
  1.1120000e+000
  1.1860000e+000
  1.0380000e+000
  1.0130000e+000
  1.0870000e+000
  1.0030000e+000
  9.5000000e-001
  1.0220000e+000
  1.0170000e+000
  9.2900000e-001
  9.7000000e-001
  1.0140000e+000
  9.1100000e-001
  9.2900000e-001
  1.0270000e+000
  9.7600000e-001
  9.3900000e-001
  1.0140000e+000
  1.0150000e+000
  9.4400000e-001
  9.9000000e-001
  1.0520000e+000
  9.7100000e-001
  9.7400000e-001
  1.0790000e+000
  1.0130000e+000
  9.7800000e-001
  1.0620000e+000
  1.0520000e+000
  9.7400000e-001
  1.0390000e+000
  1.1130000e+000
  1.0030000e+000
  1.0090000e+000
  1.1220000e+000
  1.0630000e+000
  1.0200000e+000
  1.1260000e+000
  1.1280000e+000
  1.0380000e+000
  1.0820000e+000
  1.1230000e+000
  1.0240000e+000
  1.0320000e+000
  1.1420000e+000
  1.0590000e+000
  1.0080000e+000
  1.1210000e+000
  1.1360000e+000
  1.0500000e+000
  1.1070000e+000
  1.1820000e+000
  1.0520000e+000
  1.0480000e+000
  1.1540000e+000
  1.0640000e+000
  1.0250000e+000
  1.1330000e+000
  1.1180000e+000
  1.0220000e+000
  1.0780000e+000
  1.1560000e+000
  1.0290000e+000
  1.0330000e+000
  1.1770000e+000
  1.0840000e+000
  1.0250000e+000
  1.1010000e+000
  1.0870000e+000
  1.0040000e+000
  1.0620000e+000
  1.1550000e+000
  1.0420000e+000
  1.0390000e+000
  1.1550000e+000
  1.0660000e+000
  1.0180000e+000
  1.1110000e+000
  1.1120000e+000
  1.0290000e+000
  1.0890000e+000
  1.1700000e+000
  1.0490000e+000
  1.0400000e+000
  1.1510000e+000
  1.0630000e+000
  1.0250000e+000
  1.1160000e+000
  1.0890000e+000
  9.9900000e-001
  1.0580000e+000
  1.1400000e+000
  1.0220000e+000
  1.0230000e+000
  1.1550000e+000
  1.0820000e+000
  1.0330000e+000
  1.1430000e+000
  1.1400000e+000
  1.0440000e+000
  1.1270000e+000
  1.2400000e+000
  1.0870000e+000
  1.0810000e+000
  1.1990000e+000
  1.0870000e+000
  1.0280000e+000
  1.1270000e+000
  1.1020000e+000
  9.9600000e-001
  1.0280000e+000
  1.0840000e+000
  1.0000000e+000
  1.0070000e+000
  1.1010000e+000
  1.0270000e+000
  9.8900000e-001
  1.0960000e+000
  1.0840000e+000
  9.8100000e-001
  1.0320000e+000
  1.0960000e+000
  1.0040000e+000
  1.0080000e+000
  1.1020000e+000
  1.0240000e+000
  1.0020000e+000
  1.1150000e+000
  1.1330000e+000
  1.0980000e+000
  1.3380000e+000
  1.6640000e+000
  1.6370000e+000
  1.6490000e+000
  1.6770000e+000
  1.3260000e+000
  1.0500000e+000
  1.0400000e+000
  9.9800000e-001
  9.1100000e-001
  9.2400000e-001
  9.5900000e-001
  8.8000000e-001
  8.9900000e-001
  9.9300000e-001
  9.3600000e-001
  9.0200000e-001
  9.8100000e-001
  9.7600000e-001
  9.1000000e-001
  9.6900000e-001
  1.0430000e+000
  9.6100000e-001
  9.8000000e-001
  1.0770000e+000
  1.0040000e+000
  9.7400000e-001
  1.0780000e+000
  1.0780000e+000
  9.9900000e-001
  1.0660000e+000
  1.1350000e+000
  1.0240000e+000
  1.0250000e+000
  1.1210000e+000
  1.0450000e+000
  1.0190000e+000
  1.1100000e+000
  1.1000000e+000
  1.0230000e+000
  1.1030000e+000
  1.1960000e+000
  1.0720000e+000
  1.0840000e+000
  1.2110000e+000
  1.1180000e+000
  1.0830000e+000
  1.2130000e+000
  1.1900000e+000
  1.0820000e+000
  1.1550000e+000
  1.2360000e+000
  1.1050000e+000
  1.1400000e+000
  1.2780000e+000
  1.1370000e+000
  1.0610000e+000
  1.1660000e+000
  1.1350000e+000
  1.0240000e+000
  1.0680000e+000
  1.1170000e+000
  9.9400000e-001
  9.9100000e-001
  1.0860000e+000
  9.9300000e-001
  9.2600000e-001
  9.8500000e-001
  9.7300000e-001
  9.0300000e-001
  9.4700000e-001
  9.9800000e-001
  9.1400000e-001
  9.3700000e-001
  1.0380000e+000
  9.7000000e-001
  9.3700000e-001
  1.0150000e+000
  1.0030000e+000
  9.3400000e-001
  9.9800000e-001
  1.0530000e+000
  9.6500000e-001
  9.7900000e-001
  1.0680000e+000
  1.0050000e+000
  9.8600000e-001
  1.1050000e+000
  1.0950000e+000
  1.0080000e+000
  1.0560000e+000
  1.1180000e+000
  1.0230000e+000
  1.0420000e+000
  1.1560000e+000
  1.0610000e+000
  1.0220000e+000
  1.1220000e+000
  1.1250000e+000
  1.0390000e+000
  1.0910000e+000
  1.1320000e+000
  1.0140000e+000
  1.0270000e+000
  1.1510000e+000
  1.0790000e+000
  1.0440000e+000
  1.1460000e+000
  1.1110000e+000
  1.0180000e+000
  1.0830000e+000
  1.1500000e+000
  1.0400000e+000
  1.0610000e+000
  1.1690000e+000
  1.0500000e+000
  1.0050000e+000
  1.0970000e+000
  1.0780000e+000
  1.0030000e+000
  1.0740000e+000
  1.1490000e+000
  1.0290000e+000
  1.0270000e+000
  1.1460000e+000
  1.0680000e+000
  1.0290000e+000
  1.1350000e+000
  1.1080000e+000
  1.0300000e+000
  1.1010000e+000
  1.1740000e+000
  1.0280000e+000
  1.0150000e+000
  1.1350000e+000
  1.0520000e+000
  1.0100000e+000
  1.1170000e+000
  1.1030000e+000
  1.0250000e+000
  1.0740000e+000
  1.1400000e+000
  1.0330000e+000
  1.0390000e+000
  1.1460000e+000
  1.0740000e+000
  1.0490000e+000
  1.1670000e+000
  1.1330000e+000
  1.0300000e+000
  1.1010000e+000
  1.1820000e+000
  1.0640000e+000
  1.0770000e+000
  1.1950000e+000
  1.0890000e+000
  1.0440000e+000
  1.1500000e+000
  1.1170000e+000
  1.0190000e+000
  1.0680000e+000
  1.1020000e+000
  9.8600000e-001
  1.0080000e+000
  1.1210000e+000
  1.0350000e+000
  9.9400000e-001
  1.0830000e+000
  1.0690000e+000
  1.0050000e+000
  1.0620000e+000
  1.0920000e+000
  9.8900000e-001
  1.0020000e+000
  1.1030000e+000
  1.0290000e+000
  9.9900000e-001
  1.1150000e+000
  1.0970000e+000
  1.0250000e+000
  1.1750000e+000
  1.4120000e+000
  1.4190000e+000
  1.5050000e+000
  1.6400000e+000
  1.4110000e+000
  1.1910000e+000
  1.1460000e+000
  1.0200000e+000
  9.2200000e-001
  9.7100000e-001
  1.0130000e+000
  9.3100000e-001
  9.4400000e-001
  1.0240000e+000
  9.5500000e-001
  9.3200000e-001
  1.0050000e+000
  9.8300000e-001
  9.2400000e-001
  9.8000000e-001
  1.0290000e+000
  9.5900000e-001
  9.8600000e-001
  1.0910000e+000
  1.0020000e+000
  9.8300000e-001
  1.0920000e+000
  1.0690000e+000
  9.9900000e-001
  1.0810000e+000
  1.1370000e+000
  1.0190000e+000
  1.0320000e+000
  1.1540000e+000
  1.0630000e+000
  1.0200000e+000
  1.1360000e+000
  1.1120000e+000
  1.0290000e+000
  1.0760000e+000
  1.1310000e+000
  1.0420000e+000
  1.0890000e+000
  1.2250000e+000
  1.1170000e+000
  1.0870000e+000
  1.2240000e+000
  1.2000000e+000
  1.1020000e+000
  1.1870000e+000
  1.2450000e+000
  1.1000000e+000
  1.1100000e+000
  1.2390000e+000
  1.1220000e+000
  1.0690000e+000
  1.1700000e+000
  1.1270000e+000
  1.0330000e+000
  1.1050000e+000
  1.1610000e+000
  1.0190000e+000
  1.0140000e+000
  1.0730000e+000
  9.7300000e-001
  9.3600000e-001
  1.0200000e+000
  9.9100000e-001
  9.1400000e-001
  9.6000000e-001
  9.9100000e-001
  9.0600000e-001
  9.2100000e-001
  1.0030000e+000
  9.2700000e-001
  9.1000000e-001
  1.0040000e+000
  9.8800000e-001
  9.3400000e-001
  1.0030000e+000
  1.0480000e+000
  9.5600000e-001
  9.9300000e-001
  1.0980000e+000
  1.0090000e+000
  9.7500000e-001
  1.0860000e+000
  1.0620000e+000
  9.9000000e-001
  1.0530000e+000
  1.1070000e+000
  1.0120000e+000
  1.0480000e+000
  1.1520000e+000
  1.0330000e+000
  1.0050000e+000
  1.1300000e+000
  1.1180000e+000
  1.0390000e+000
  1.1150000e+000
  1.1870000e+000
  1.0560000e+000
  1.0520000e+000
  1.1470000e+000
  1.0450000e+000
  1.0130000e+000
  1.1220000e+000
  1.0980000e+000
  1.0200000e+000
  1.0980000e+000
  1.1560000e+000
  1.0320000e+000
  1.0400000e+000
  1.1510000e+000
  1.0560000e+000
  1.0220000e+000
  1.1420000e+000
  1.1070000e+000
  1.0190000e+000
  1.0820000e+000
  1.1250000e+000
  1.0140000e+000
  1.0390000e+000
  1.1460000e+000
  1.0560000e+000
  1.0240000e+000
  1.1300000e+000
  1.0930000e+000
  1.0170000e+000
  1.0830000e+000
  1.1360000e+000
  1.0280000e+000
  1.0440000e+000
  1.1460000e+000
  1.0610000e+000
  1.0340000e+000
  1.1430000e+000
  1.0930000e+000
  1.0080000e+000
  1.0860000e+000
  1.1420000e+000
  1.0280000e+000
  1.0570000e+000
  1.1690000e+000
  1.0570000e+000
  1.0280000e+000
  1.1550000e+000
  1.1300000e+000
  1.0500000e+000
  1.1370000e+000
  1.2050000e+000
  1.0740000e+000
  1.0830000e+000
  1.1800000e+000
  1.0720000e+000
  1.0340000e+000
  1.1150000e+000
  1.0610000e+000
  9.7500000e-001
  1.0390000e+000
  1.1000000e+000
  1.0020000e+000
  1.0190000e+000
  1.1210000e+000
  1.0300000e+000
  9.9800000e-001
  1.1030000e+000
  1.0520000e+000
  9.8300000e-001
  1.0590000e+000
  1.0930000e+000
  9.8000000e-001
  1.0020000e+000
  1.1270000e+000
  1.0570000e+000
  1.0500000e+000
  1.2330000e+000
  1.3190000e+000
  1.4100000e+000
  1.6300000e+000
  1.6880000e+000
  1.4260000e+000
  1.2740000e+000
  1.2080000e+000
  1.0050000e+000
  9.3600000e-001
  9.9800000e-001
  9.6300000e-001
  9.0200000e-001
  9.5900000e-001
  9.7800000e-001
  8.9700000e-001
  9.2900000e-001
  1.0330000e+000
  9.6300000e-001
  9.3400000e-001
  1.0200000e+000
  9.9500000e-001
  9.5000000e-001
  1.0250000e+000
  1.0670000e+000
  9.8000000e-001
  1.0100000e+000
  1.1050000e+000
  1.0150000e+000
  9.9100000e-001
  1.1030000e+000
  1.0640000e+000
  9.9400000e-001
  1.0780000e+000
  1.1280000e+000
  1.0250000e+000
  1.0610000e+000
  1.1890000e+000
  1.0670000e+000
  1.0300000e+000
  1.1500000e+000
  1.1210000e+000
  1.0440000e+000
  1.1250000e+000
  1.1910000e+000
  1.0710000e+000
  1.0910000e+000
  1.2360000e+000
  1.1210000e+000
  1.0880000e+000
  1.2210000e+000
  1.1740000e+000
  1.0780000e+000
  1.1810000e+000
  1.2400000e+000
  1.0960000e+000
  1.1280000e+000
  1.2440000e+000
  1.1020000e+000
  1.0430000e+000
  1.1380000e+000
  1.0780000e+000
  9.8400000e-001
  1.0390000e+000
  1.0640000e+000
  9.5900000e-001
  9.7100000e-001
  1.0350000e+000
  9.4600000e-001
  9.2700000e-001
  1.0170000e+000
  9.7400000e-001
  9.0900000e-001
  9.5800000e-001
  9.9300000e-001
  9.1600000e-001
  9.4200000e-001
  1.0300000e+000
  9.5900000e-001
  9.4900000e-001
  1.0440000e+000
  1.0090000e+000
  9.5000000e-001
  1.0300000e+000
  1.0920000e+000
  9.9800000e-001
  1.0140000e+000
  1.0910000e+000
  1.0040000e+000
  9.9400000e-001
  1.1060000e+000
  1.0790000e+000
  1.0150000e+000
  1.0790000e+000
  1.1150000e+000
  1.0140000e+000
  1.0530000e+000
  1.1520000e+000
  1.0430000e+000
  1.0390000e+000
  1.1560000e+000
  1.1110000e+000
  1.0250000e+000
  1.1060000e+000
  1.1450000e+000
  1.0240000e+000
  1.0540000e+000
  1.1430000e+000
  1.0420000e+000
  1.0220000e+000
  1.1350000e+000
  1.0890000e+000
  1.0120000e+000
  1.0820000e+000
  1.1230000e+000
  1.0400000e+000
  1.0760000e+000
  1.1720000e+000
  1.0430000e+000
  1.0180000e+000
  1.1330000e+000
  1.0910000e+000
  1.0180000e+000
  1.0930000e+000
  1.1330000e+000
  1.0270000e+000
  1.0480000e+000
  1.1450000e+000
  1.0370000e+000
  1.0170000e+000
  1.1300000e+000
  1.0890000e+000
  1.0330000e+000
  1.1270000e+000
  1.1650000e+000
  1.0320000e+000
  1.0480000e+000
  1.1620000e+000
  1.0490000e+000
  1.0240000e+000
  1.1270000e+000
  1.0820000e+000
  1.0090000e+000
  1.0910000e+000
  1.1380000e+000
  1.0270000e+000
  1.0540000e+000
  1.1560000e+000
  1.0370000e+000
  1.0220000e+000
  1.1460000e+000
  1.0970000e+000
  1.0230000e+000
  1.1160000e+000
  1.1650000e+000
  1.0480000e+000
  1.0820000e+000
  1.2130000e+000
  1.0860000e+000
  1.0570000e+000
  1.1820000e+000
  1.1200000e+000
  1.0340000e+000
  1.1200000e+000
  1.1510000e+000
  1.0120000e+000
  1.0020000e+000
  1.0640000e+000
  9.9600000e-001
  9.8800000e-001
  1.1000000e+000
  1.0660000e+000
  1.0030000e+000
  1.0720000e+000
  1.0860000e+000
  9.8900000e-001
  1.0100000e+000
  1.1170000e+000
  1.0320000e+000
  1.0090000e+000
  1.1130000e+000
  1.0710000e+000
  1.0040000e+000
  1.1050000e+000
  1.1710000e+000
  1.1260000e+000
  1.3840000e+000
  1.7130000e+000
  1.6590000e+000
  1.5730000e+000
  1.5980000e+000
  1.3210000e+000
  1.0390000e+000
  1.0200000e+000
  1.0140000e+000
  9.0300000e-001
  9.1000000e-001
  9.7800000e-001
  9.1100000e-001
  8.9200000e-001
  9.7100000e-001
  9.4400000e-001
  8.8700000e-001
  9.5100000e-001
  9.8600000e-001
  9.2000000e-001
  9.6300000e-001
  1.0520000e+000
  9.6900000e-001
  9.5400000e-001
  1.0500000e+000
  1.0220000e+000
  9.7600000e-001
  1.0610000e+000
  1.1020000e+000
  1.0140000e+000
  1.0440000e+000
  1.1280000e+000
  1.0290000e+000
  1.0170000e+000
  1.1300000e+000
  1.0820000e+000
  9.9800000e-001
  1.0590000e+000
  1.1050000e+000
  1.0230000e+000
  1.0730000e+000
  1.2050000e+000
  1.0830000e+000
  1.0680000e+000
  1.2160000e+000
  1.1560000e+000
  1.0680000e+000
  1.1650000e+000
  1.2110000e+000
  1.0920000e+000
  1.1430000e+000
  1.2480000e+000
  1.1030000e+000
  1.0740000e+000
  1.1910000e+000
  1.1220000e+000
  1.0390000e+000
  1.1230000e+000
  1.1590000e+000
  1.0380000e+000
  1.0680000e+000
  1.1490000e+000
  1.0080000e+000
  9.6800000e-001
  1.0630000e+000
  1.0150000e+000
  9.5000000e-001
  1.0090000e+000
  1.0290000e+000
  9.4200000e-001
  9.5600000e-001
  1.0170000e+000
  9.3700000e-001
  9.3100000e-001
  1.0420000e+000
  1.0050000e+000
  9.5100000e-001
  1.0230000e+000
  1.0380000e+000
  9.4700000e-001
  9.7500000e-001
  1.0670000e+000
  9.8300000e-001
  9.7100000e-001
  1.0830000e+000
  1.0480000e+000
  1.0000000e+000
  1.0690000e+000
  1.0960000e+000
  1.0000000e+000
  1.0290000e+000
  1.1200000e+000
  1.0230000e+000
  1.0090000e+000
  1.1270000e+000
  1.0720000e+000
  1.0130000e+000
  1.1060000e+000
  1.1470000e+000
  1.0400000e+000
  1.0630000e+000
  1.1690000e+000
  1.0430000e+000
  1.0190000e+000
  1.1490000e+000
  1.0960000e+000
  1.0290000e+000
  1.1150000e+000
  1.1470000e+000
  1.0320000e+000
  1.0590000e+000
  1.1510000e+000
  1.0530000e+000
  1.0380000e+000
  1.1520000e+000
  1.0920000e+000
  1.0220000e+000
  1.1130000e+000
  1.1310000e+000
  1.0340000e+000
  1.0830000e+000
  1.1720000e+000
  1.0370000e+000
  1.0170000e+000
  1.1220000e+000
  1.0790000e+000
  1.0180000e+000
  1.0950000e+000
  1.1200000e+000
  1.0090000e+000
  1.0540000e+000
  1.1610000e+000
  1.0480000e+000
  1.0240000e+000
  1.1380000e+000
  1.0870000e+000
  1.0170000e+000
  1.0870000e+000
  1.1220000e+000
  1.0280000e+000
  1.0640000e+000
  1.1560000e+000
  1.0450000e+000
  1.0290000e+000
  1.1550000e+000
  1.0980000e+000
  1.0300000e+000
  1.1100000e+000
  1.1200000e+000
  1.0130000e+000
  1.0560000e+000
  1.1510000e+000
  1.0470000e+000
  1.0240000e+000
  1.1460000e+000
  1.0830000e+000
  1.0190000e+000
  1.1160000e+000
  1.1520000e+000
  1.0580000e+000
  1.1060000e+000
  1.2160000e+000
  1.0790000e+000
  1.0580000e+000
  1.1950000e+000
  1.1220000e+000
  1.0290000e+000
  1.0970000e+000
  1.0980000e+000
  9.8600000e-001
  1.0100000e+000
  1.0890000e+000
  9.9300000e-001
  9.8400000e-001
  1.0910000e+000
  1.0430000e+000
  9.8100000e-001
  1.0530000e+000
  1.0830000e+000
  9.9500000e-001
  1.0250000e+000
  1.1050000e+000
  1.0130000e+000
  1.0090000e+000
  1.1270000e+000
  1.0790000e+000
  1.0490000e+000
  1.2430000e+000
  1.4580000e+000
  1.5220000e+000
  1.6800000e+000
  1.8010000e+000
  1.5410000e+000
  1.2970000e+000
  1.2090000e+000
  1.0030000e+000
  9.0500000e-001
  9.6000000e-001
  9.6900000e-001
  8.8300000e-001
  9.0000000e-001
  9.5400000e-001
  8.8800000e-001
  8.9500000e-001
  9.8300000e-001
  9.5100000e-001
  9.1200000e-001
  9.9500000e-001
  1.0180000e+000
  9.4100000e-001
  9.7800000e-001
  1.0570000e+000
  9.7000000e-001
  9.6400000e-001
  1.0680000e+000
  1.0130000e+000
  9.7400000e-001
  1.0690000e+000
  1.0960000e+000
  1.0020000e+000
  1.0530000e+000
  1.1670000e+000
  1.0420000e+000
  1.0140000e+000
  1.1300000e+000
  1.0820000e+000
  1.0170000e+000
  1.1070000e+000
  1.1460000e+000
  1.0450000e+000
  1.1080000e+000
  1.2160000e+000
  1.0880000e+000
  1.0690000e+000
  1.2000000e+000
  1.1170000e+000
  1.0530000e+000
  1.1600000e+000
  1.1950000e+000
  1.0860000e+000
  1.1590000e+000
  1.2570000e+000
  1.1150000e+000
  1.0930000e+000
  1.2210000e+000
  1.1380000e+000
  1.0450000e+000
  1.1160000e+000
  1.1250000e+000
  1.0130000e+000
  1.0330000e+000
  1.0880000e+000
  9.7800000e-001
  9.5100000e-001
  1.0290000e+000
  9.7600000e-001
  9.1900000e-001
  9.8500000e-001
  9.9500000e-001
  9.1900000e-001
  9.6300000e-001
  1.0470000e+000
  9.7600000e-001
  9.6100000e-001
  1.0390000e+000
  9.8900000e-001
  9.4900000e-001
  1.0100000e+000
  1.0280000e+000
  9.5400000e-001
  1.0000000e+000
  1.0920000e+000
  9.9800000e-001
  9.9000000e-001
  1.0930000e+000
  1.0420000e+000
  9.9900000e-001
  1.0780000e+000
  1.0950000e+000
  1.0070000e+000
  1.0670000e+000
  1.1570000e+000
  1.0280000e+000
  1.0250000e+000
  1.1660000e+000
  1.0980000e+000
  1.0220000e+000
  1.0960000e+000
  1.1100000e+000
  1.0170000e+000
  1.0810000e+000
  1.1660000e+000
  1.0390000e+000
  1.0380000e+000
  1.1590000e+000
  1.0880000e+000
  1.0200000e+000
  1.1060000e+000
  1.1280000e+000
  1.0300000e+000
  1.0680000e+000
  1.1540000e+000
  1.0420000e+000
  1.0380000e+000
  1.1550000e+000
  1.0890000e+000
  1.0240000e+000
  1.1120000e+000
  1.1230000e+000
  1.0240000e+000
  1.0740000e+000
  1.1670000e+000
  1.0450000e+000
  1.0190000e+000
  1.1020000e+000
  1.0610000e+000
  1.0130000e+000
  1.1030000e+000
  1.1060000e+000
  1.0080000e+000
  1.0490000e+000
  1.1420000e+000
  1.0320000e+000
  1.0440000e+000
  1.1810000e+000
  1.1010000e+000
  1.0400000e+000
  1.1370000e+000
  1.1230000e+000
  1.0080000e+000
  1.0560000e+000
  1.1560000e+000
  1.0280000e+000
  1.0100000e+000
  1.1320000e+000
  1.0830000e+000
  1.0290000e+000
  1.1400000e+000
  1.1450000e+000
  1.0440000e+000
  1.1020000e+000
  1.2030000e+000
  1.0840000e+000
  1.0870000e+000
  1.2090000e+000
  1.0920000e+000
  1.0140000e+000
  1.1150000e+000
  1.1170000e+000
  9.9900000e-001
  1.0300000e+000
  1.1030000e+000
  1.0070000e+000
  1.0030000e+000
  1.1060000e+000
  1.0440000e+000
  9.8400000e-001
  1.0520000e+000
  1.0660000e+000
  9.8300000e-001
  1.0250000e+000
  1.1110000e+000
  1.0220000e+000
  1.0190000e+000
  1.1310000e+000
  1.0620000e+000
  1.0150000e+000
  1.1280000e+000
  1.1770000e+000
  1.1460000e+000
  1.3840000e+000
  1.6610000e+000
  1.5610000e+000
  1.4750000e+000
  1.4750000e+000
  1.1620000e+000
  9.6600000e-001
  9.9600000e-001
  9.9900000e-001
  9.2500000e-001
  9.6300000e-001
  1.0190000e+000
  9.2700000e-001
  9.3700000e-001
  1.0120000e+000
  9.4600000e-001
  9.1700000e-001
  1.0030000e+000
  1.0190000e+000
  9.3400000e-001
  9.6800000e-001
  1.0390000e+000
  9.7400000e-001
  9.8300000e-001
  1.0890000e+000
  1.0250000e+000
  9.7900000e-001
  1.0720000e+000
  1.1000000e+000
  1.0180000e+000
  1.0580000e+000
  1.1380000e+000
  1.0230000e+000
  1.0240000e+000
  1.1450000e+000
  1.0790000e+000
  1.0340000e+000
  1.1300000e+000
  1.1460000e+000
  1.0440000e+000
  1.1050000e+000
  1.2030000e+000
  1.0790000e+000
  1.0740000e+000
  1.2100000e+000
  1.1310000e+000
  1.0760000e+000
  1.1790000e+000
  1.1960000e+000
  1.0810000e+000
  1.1320000e+000
  1.2330000e+000
  1.0910000e+000
  1.0960000e+000
  1.2310000e+000
  1.1420000e+000
  1.0640000e+000
  1.1560000e+000
  1.1350000e+000
  1.0170000e+000
  1.0400000e+000
  1.1000000e+000
  9.9000000e-001
  9.6500000e-001
  1.0300000e+000
  9.7100000e-001
  9.2600000e-001
  9.8400000e-001
  9.7000000e-001
  8.8800000e-001
  9.3200000e-001
  1.0020000e+000
  9.1600000e-001
  9.2000000e-001
  1.0140000e+000
  9.7100000e-001
  9.4400000e-001
  1.0240000e+000
  1.0300000e+000
  9.5100000e-001
  9.9000000e-001
  1.0630000e+000
  9.7900000e-001
  9.9000000e-001
  1.0960000e+000
  1.0330000e+000
  9.9500000e-001
  1.0840000e+000
  1.0870000e+000
  1.0000000e+000
  1.0540000e+000
  1.1370000e+000
  1.0330000e+000
  1.0300000e+000
  1.1570000e+000
  1.0830000e+000
  1.0320000e+000
  1.1250000e+000
  1.1230000e+000
  1.0270000e+000
  1.0730000e+000
  1.1720000e+000
  1.0490000e+000
  1.0430000e+000
  1.1670000e+000
  1.0810000e+000
  1.0190000e+000
  1.1150000e+000
  1.1200000e+000
  1.0230000e+000
  1.0660000e+000
  1.1450000e+000
  1.0230000e+000
  1.0250000e+000
  1.1490000e+000
  1.0670000e+000
  1.0120000e+000
  1.0930000e+000
  1.1000000e+000
  9.9800000e-001
  1.0540000e+000
  1.1420000e+000
  1.0400000e+000
  1.0450000e+000
  1.1690000e+000
  1.0840000e+000
  1.0400000e+000
  1.1350000e+000
  1.1220000e+000
  1.0230000e+000
  1.0770000e+000
  1.1570000e+000
  1.0280000e+000
  1.0190000e+000
  1.1100000e+000
  1.0330000e+000
  9.9300000e-001
  1.0910000e+000
  1.0930000e+000
  1.0190000e+000
  1.0870000e+000
  1.1760000e+000
  1.0440000e+000
  1.0490000e+000
  1.1750000e+000
  1.0920000e+000
  1.0380000e+000
  1.1540000e+000
  1.1760000e+000
  1.0640000e+000
  1.1130000e+000
  1.2130000e+000
  1.0770000e+000
  1.0570000e+000
  1.1810000e+000
  1.0830000e+000
  1.0170000e+000
  1.0920000e+000
  1.0710000e+000
  9.8100000e-001
  1.0370000e+000
  1.1310000e+000
  1.0170000e+000
  1.0090000e+000
  1.1080000e+000
  1.0290000e+000
  9.8100000e-001
  1.0530000e+000
  1.0540000e+000
  9.7900000e-001
  1.0330000e+000
  1.1060000e+000
  1.0090000e+000
  1.0190000e+000
  1.1510000e+000
  1.0840000e+000
  1.0720000e+000
  1.2910000e+000
  1.4490000e+000
  1.4810000e+000
  1.6130000e+000
  1.6540000e+000
  1.3430000e+000
  1.1380000e+000
  1.1060000e+000
  9.7000000e-001
  9.1000000e-001
  9.8500000e-001
  9.7400000e-001
  8.9700000e-001
  9.3900000e-001
  1.0080000e+000
  9.3000000e-001
  9.3200000e-001
  1.0170000e+000
  9.6500000e-001
  9.4100000e-001
  1.0440000e+000
  1.0520000e+000
  9.7100000e-001
  1.0050000e+000
  1.0610000e+000
  9.8100000e-001
  1.0020000e+000
  1.1150000e+000
  1.0340000e+000
  9.7900000e-001
  1.0730000e+000
  1.0840000e+000
  1.0000000e+000
  1.0580000e+000
  1.1490000e+000
  1.0370000e+000
  1.0470000e+000
  1.1860000e+000
  1.0930000e+000
  1.0340000e+000
  1.1510000e+000
  1.1510000e+000
  1.0400000e+000
  1.1130000e+000
  1.2100000e+000
  1.0820000e+000
  1.0760000e+000
  1.2010000e+000
  1.1130000e+000
  1.0740000e+000
  1.2050000e+000
  1.2080000e+000
  1.0950000e+000
  1.1700000e+000
  1.2440000e+000
  1.0930000e+000
  1.0820000e+000
  1.1960000e+000
  1.1020000e+000
  1.0340000e+000
  1.1300000e+000
  1.1050000e+000
  1.0040000e+000
  1.0430000e+000
  1.0810000e+000
  9.5800000e-001
  9.3700000e-001
  1.0140000e+000
  9.5000000e-001
  9.0600000e-001
  9.7800000e-001
  9.7400000e-001
  9.0500000e-001
  9.4700000e-001
  1.0120000e+000
  9.3100000e-001
  9.3900000e-001
  1.0350000e+000
  9.7600000e-001
  9.4400000e-001
  1.0280000e+000
  1.0330000e+000
  9.5800000e-001
  1.0150000e+000
  1.0840000e+000
  1.0020000e+000
  1.0140000e+000
  1.1230000e+000
  1.0430000e+000
  9.9300000e-001
  1.0920000e+000
  1.0950000e+000
  1.0130000e+000
  1.0710000e+000
  1.1490000e+000
  1.0290000e+000
  1.0270000e+000
  1.1450000e+000
  1.0580000e+000
  1.0320000e+000
  1.1380000e+000
  1.1250000e+000
  1.0320000e+000
  1.1000000e+000
  1.1770000e+000
  1.0400000e+000
  1.0470000e+000
  1.1640000e+000
  1.0730000e+000
  1.0200000e+000
  1.1120000e+000
  1.1000000e+000
  1.0090000e+000
  1.0660000e+000
  1.1550000e+000
  1.0370000e+000
  1.0390000e+000
  1.1550000e+000
  1.0610000e+000
  1.0080000e+000
  1.1080000e+000
  1.1120000e+000
  1.0240000e+000
  1.0830000e+000
  1.1590000e+000
  1.0400000e+000
  1.0580000e+000
  1.1620000e+000
  1.0620000e+000
  1.0220000e+000
  1.1250000e+000
  1.1150000e+000
  1.0280000e+000
  1.0840000e+000
  1.1420000e+000
  1.0200000e+000
  1.0290000e+000
  1.1380000e+000
  1.0440000e+000
  1.0040000e+000
  1.0950000e+000
  1.0790000e+000
  1.0190000e+000
  1.0840000e+000
  1.1710000e+000
  1.0520000e+000
  1.0560000e+000
  1.1760000e+000
  1.0770000e+000
  1.0340000e+000
  1.1310000e+000
  1.1030000e+000
  1.0170000e+000
  1.0770000e+000
  1.1500000e+000
  1.0330000e+000
  1.0450000e+000
  1.1660000e+000
  1.0770000e+000
  1.0440000e+000
  1.1520000e+000
  1.1280000e+000
  1.0490000e+000
  1.1210000e+000
  1.2030000e+000
  1.0620000e+000
  1.0480000e+000
  1.1520000e+000
  1.0440000e+000
  9.9500000e-001
  1.0820000e+000
  1.0710000e+000
  9.8400000e-001
  1.0250000e+000
  1.0950000e+000
  9.9800000e-001
  1.0080000e+000
  1.1060000e+000
  1.0170000e+000
  9.7500000e-001
  1.0640000e+000
  1.0630000e+000
  9.8900000e-001
  1.0500000e+000
  1.1320000e+000
  1.0340000e+000
  1.0730000e+000
  1.3010000e+000
  1.3680000e+000
  1.5100000e+000
  1.7690000e+000
  1.7260000e+000
  1.4590000e+000
  1.3340000e+000
  1.2110000e+000
  9.7800000e-001
  9.3000000e-001
  9.8500000e-001
  9.0700000e-001
  8.6600000e-001
  9.4700000e-001
  9.4900000e-001
  8.8700000e-001
  9.3900000e-001
  1.0050000e+000
  9.3100000e-001
  9.4100000e-001
  1.0220000e+000
  9.5800000e-001
  9.3500000e-001
  1.0250000e+000
  1.0280000e+000
  9.5900000e-001
  1.0140000e+000
  1.0690000e+000
  9.7600000e-001
  9.9800000e-001
  1.1130000e+000
  1.0300000e+000
  9.9500000e-001
  1.1080000e+000
  1.1080000e+000
  1.0240000e+000
  1.0980000e+000
  1.1640000e+000
  1.0330000e+000
  1.0400000e+000
  1.1660000e+000
  1.0760000e+000
  1.0320000e+000
  1.1460000e+000
  1.1350000e+000
  1.0530000e+000
  1.1360000e+000
  1.2060000e+000
  1.0770000e+000
  1.1170000e+000
  1.2450000e+000
  1.1200000e+000
  1.0760000e+000
  1.1990000e+000
  1.1710000e+000
  1.0780000e+000
  1.1710000e+000
  1.2340000e+000
  1.0720000e+000
  1.0540000e+000
  1.1460000e+000
  1.0440000e+000
  9.9300000e-001
  1.0720000e+000
  1.0500000e+000
  9.6800000e-001
  1.0080000e+000
  1.0470000e+000
  9.5100000e-001
  9.5500000e-001
  1.0440000e+000
  9.6400000e-001
  9.0900000e-001
  9.7400000e-001
  9.7500000e-001
  9.2900000e-001
  9.8000000e-001
  1.0190000e+000
  9.3500000e-001
  9.6300000e-001
  1.0790000e+000
  1.0080000e+000
  9.7600000e-001
  1.0620000e+000
  1.0490000e+000
  9.7900000e-001
  1.0390000e+000
  1.1020000e+000
  1.0000000e+000
  1.0070000e+000
  1.1070000e+000
  1.0240000e+000
  9.9500000e-001
  1.1150000e+000
  1.0920000e+000
  1.0090000e+000
  1.0770000e+000
  1.1520000e+000
  1.0390000e+000
  1.0430000e+000
  1.1640000e+000
  1.0670000e+000
  1.0320000e+000
  1.1460000e+000
  1.1220000e+000
  1.0190000e+000
  1.0720000e+000
  1.1380000e+000
  1.0270000e+000
  1.0380000e+000
  1.1560000e+000
  1.0530000e+000
  1.0300000e+000
  1.1750000e+000
  1.1470000e+000
  1.0320000e+000
  1.0790000e+000
  1.1330000e+000
  1.0190000e+000
  1.0320000e+000
  1.1600000e+000
  1.0790000e+000
  1.0300000e+000
  1.1230000e+000
  1.1050000e+000
  1.0300000e+000
  1.0980000e+000
  1.1500000e+000
  1.0250000e+000
  1.0280000e+000
  1.1490000e+000
  1.0660000e+000
  1.0320000e+000
  1.1430000e+000
  1.1060000e+000
  1.0150000e+000
  1.0830000e+000
  1.1470000e+000
  1.0240000e+000
  1.0320000e+000
  1.1400000e+000
  1.0580000e+000
  1.0370000e+000
  1.1490000e+000
  1.1210000e+000
  1.0350000e+000
  1.0880000e+000
  1.1430000e+000
  1.0300000e+000
  1.0370000e+000
  1.1430000e+000
  1.0530000e+000
  1.0240000e+000
  1.1380000e+000
  1.1200000e+000
  1.0250000e+000
  1.0860000e+000
  1.1450000e+000
  1.0390000e+000
  1.0630000e+000
  1.1990000e+000
  1.1060000e+000
  1.0710000e+000
  1.1770000e+000
  1.1490000e+000
  1.0500000e+000
  1.0950000e+000
  1.1330000e+000
  1.0020000e+000
  1.0030000e+000
  1.0950000e+000
  1.0190000e+000
  9.8800000e-001
  1.0780000e+000
  1.0610000e+000
  9.8900000e-001
