  1.0940000e+000
  1.2860000e+000
  1.1930000e+000
  1.0860000e+000
  1.2150000e+000
  1.1510000e+000
  1.0100000e+000
  1.1030000e+000
  1.1500000e+000
  1.0060000e+000
  1.0280000e+000
  1.1550000e+000
  1.0610000e+000
  9.7700000e-001
  1.1130000e+000
  1.1180000e+000
  9.5900000e-001
  1.0430000e+000
  1.1180000e+000
  1.0030000e+000
  1.1440000e+000
  1.5220000e+000
  1.6330000e+000
  1.7310000e+000
  2.0800000e+000
  2.0580000e+000
  1.6460000e+000
  1.4830000e+000
  1.2680000e+000
  9.6200000e-001
  9.4300000e-001
  1.0310000e+000
  9.4700000e-001
  8.8200000e-001
  9.9000000e-001
  9.7300000e-001
  8.7500000e-001
  9.7600000e-001
  1.0270000e+000
  9.0600000e-001
  9.2900000e-001
  1.0320000e+000
  9.7500000e-001
  9.3000000e-001
  1.0590000e+000
  1.0620000e+000
  9.5700000e-001
  1.0570000e+000
  1.1210000e+000
  9.8200000e-001
  1.0140000e+000
  1.1510000e+000
  1.0600000e+000
  9.8700000e-001
  1.1260000e+000
  1.1440000e+000
  1.0150000e+000
  1.1480000e+000
  1.2350000e+000
  1.0600000e+000
  1.0890000e+000
  1.2730000e+000
  1.1920000e+000
  1.1090000e+000
  1.2990000e+000
  1.2960000e+000
  1.0980000e+000
  1.2450000e+000
  1.3410000e+000
  1.1330000e+000
  1.1740000e+000
  1.3610000e+000
  1.2350000e+000
  1.1170000e+000
  1.2870000e+000
  1.2530000e+000
  1.0610000e+000
  1.1590000e+000
  1.1910000e+000
  9.9400000e-001
  9.9600000e-001
  1.0900000e+000
  9.9400000e-001
  9.0800000e-001
  1.0280000e+000
  1.0240000e+000
  9.0300000e-001
  9.8900000e-001
  1.0530000e+000
  9.2700000e-001
  9.4100000e-001
  1.0310000e+000
  9.6600000e-001
  9.0800000e-001
  1.0230000e+000
  1.0280000e+000
  9.0300000e-001
  9.9700000e-001
  1.0620000e+000
  9.3800000e-001
  9.7300000e-001
  1.1120000e+000
  1.0440000e+000
  9.8500000e-001
  1.1130000e+000
  1.0950000e+000
  9.6300000e-001
  1.0700000e+000
  1.1450000e+000
  9.8300000e-001
  1.0100000e+000
  1.1560000e+000
  1.0760000e+000
  9.8200000e-001
  1.0780000e+000
  1.0880000e+000
  9.6400000e-001
  1.0660000e+000
  1.1730000e+000
  1.0270000e+000
  1.0500000e+000
  1.1840000e+000
  1.0920000e+000
  1.0060000e+000
  1.1330000e+000
  1.1270000e+000
  9.9600000e-001
  1.1050000e+000
  1.1650000e+000
  1.0060000e+000
  1.0290000e+000
  1.1580000e+000
  1.0530000e+000
  9.9900000e-001
  1.1840000e+000
  1.1790000e+000
  1.0030000e+000
  1.1090000e+000
  1.1890000e+000
  1.0240000e+000
  1.0530000e+000
  1.1960000e+000
  1.0850000e+000
  1.0130000e+000
  1.1740000e+000
  1.1560000e+000
  9.9400000e-001
  1.0950000e+000
  1.1840000e+000
  1.0290000e+000
  1.0700000e+000
  1.2170000e+000
  1.1130000e+000
  1.0320000e+000
  1.1860000e+000
  1.1770000e+000
  1.0220000e+000
  1.1410000e+000
  1.2380000e+000
  1.0600000e+000
  1.0970000e+000
  1.2540000e+000
  1.1170000e+000
  1.0290000e+000
  1.2060000e+000
  1.2050000e+000
  1.0520000e+000
  1.2190000e+000
  1.2980000e+000
  1.0830000e+000
  1.1170000e+000
  1.3090000e+000
  1.1910000e+000
  1.0720000e+000
  1.2140000e+000
  1.1740000e+000
  1.0000000e+000
  1.0940000e+000
  1.1460000e+000
  9.8500000e-001
  1.0110000e+000
  1.1640000e+000
  1.0670000e+000
  9.9900000e-001
  1.1310000e+000
  1.1120000e+000
  9.6800000e-001
  1.0620000e+000
  1.1370000e+000
  1.0290000e+000
  1.1350000e+000
  1.4310000e+000
  1.4920000e+000
  1.6070000e+000
  2.0040000e+000
  2.0250000e+000
  1.6330000e+000
  1.4860000e+000
  1.2990000e+000
  9.8900000e-001
  9.6600000e-001
  1.0590000e+000
  9.6200000e-001
  8.9300000e-001
  1.0150000e+000
  1.0110000e+000
  8.9100000e-001
  9.8900000e-001
  1.0470000e+000
  9.1700000e-001
  9.5400000e-001
  1.0650000e+000
  9.8700000e-001
  9.2900000e-001
  1.0470000e+000
  1.0480000e+000
  9.4300000e-001
  1.0670000e+000
  1.1550000e+000
  9.9200000e-001
  1.0100000e+000
  1.1460000e+000
  1.0690000e+000
  1.0000000e+000
  1.1490000e+000
  1.1440000e+000
  1.0080000e+000
  1.1180000e+000
  1.1770000e+000
  1.0410000e+000
  1.0990000e+000
  1.2900000e+000
  1.1680000e+000
  1.1000000e+000
  1.2960000e+000
  1.2770000e+000
  1.0970000e+000
  1.2660000e+000
  1.3750000e+000
  1.1650000e+000
  1.2000000e+000
  1.3680000e+000
  1.2210000e+000
  1.1160000e+000
  1.2930000e+000
  1.2580000e+000
  1.0600000e+000
  1.1590000e+000
  1.2050000e+000
  1.0110000e+000
  1.0390000e+000
  1.1490000e+000
  1.0280000e+000
  9.3900000e-001
  1.0410000e+000
  1.0090000e+000
  8.7800000e-001
  9.7100000e-001
  1.0220000e+000
  9.0100000e-001
  9.1700000e-001
  1.0230000e+000
  9.5500000e-001
  9.0700000e-001
  1.0150000e+000
  1.0000000e+000
  8.9700000e-001
  9.9900000e-001
  1.0720000e+000
  9.6700000e-001
  1.0030000e+000
  1.0980000e+000
  1.0060000e+000
  9.5200000e-001
  1.0930000e+000
  1.0890000e+000
  9.5000000e-001
  1.0460000e+000
  1.1210000e+000
  9.8700000e-001
  1.0040000e+000
  1.1310000e+000
  1.0620000e+000
  1.0030000e+000
  1.1490000e+000
  1.1250000e+000
  9.8000000e-001
  1.0940000e+000
  1.1500000e+000
  9.9000000e-001
  1.0220000e+000
  1.1390000e+000
  1.0430000e+000
  9.7600000e-001
  1.1170000e+000
  1.1120000e+000
  9.8900000e-001
  1.0980000e+000
  1.1730000e+000
  1.0330000e+000
  1.0620000e+000
  1.1870000e+000
  1.0640000e+000
  9.9700000e-001
  1.1540000e+000
  1.1320000e+000
  9.8300000e-001
  1.0950000e+000
  1.1400000e+000
  1.0010000e+000
  1.0510000e+000
  1.1980000e+000
  1.0950000e+000
  1.0290000e+000
  1.1880000e+000
  1.1780000e+000
  1.0200000e+000
  1.1400000e+000
  1.2140000e+000
  1.0440000e+000
  1.0830000e+000
  1.2350000e+000
  1.1080000e+000
  1.0430000e+000
  1.2110000e+000
  1.1910000e+000
  1.0520000e+000
  1.1960000e+000
  1.2800000e+000
  1.0860000e+000
  1.1070000e+000
  1.2230000e+000
  1.0760000e+000
  9.7600000e-001
  1.0930000e+000
  1.0930000e+000
  9.7100000e-001
  1.0670000e+000
  1.1330000e+000
  9.8000000e-001
  1.0090000e+000
  1.1310000e+000
  1.0360000e+000
  9.8300000e-001
  1.1140000e+000
  1.1400000e+000
  1.0590000e+000
  1.3190000e+000
  1.6030000e+000
  1.5810000e+000
  1.7710000e+000
  1.9730000e+000
  1.6610000e+000
  1.2900000e+000
  1.2370000e+000
  1.0590000e+000
  8.9800000e-001
  1.0050000e+000
  1.0510000e+000
  9.1200000e-001
  9.3900000e-001
  1.0380000e+000
  9.6200000e-001
  9.1900000e-001
  1.0460000e+000
  1.0380000e+000
  9.2000000e-001
  1.0200000e+000
  1.0840000e+000
  9.6100000e-001
  9.9400000e-001
  1.1070000e+000
  1.0200000e+000
  9.5200000e-001
  1.0740000e+000
  1.0620000e+000
  9.5800000e-001
  1.1120000e+000
  1.1970000e+000
  1.0320000e+000
  1.0710000e+000
  1.2250000e+000
  1.1040000e+000
  1.0370000e+000
  1.1970000e+000
  1.1780000e+000
  1.0340000e+000
  1.1610000e+000
  1.2800000e+000
  1.1230000e+000
  1.1870000e+000
  1.3640000e+000
  1.2280000e+000
  1.1400000e+000
  1.3480000e+000
  1.3070000e+000
  1.1090000e+000
  1.2770000e+000
  1.3550000e+000
  1.1080000e+000
  1.1420000e+000
  1.3080000e+000
  1.1400000e+000
  1.0340000e+000
  1.1310000e+000
  1.0980000e+000
  9.6800000e-001
  1.0570000e+000
  1.0800000e+000
  9.3100000e-001
  9.6200000e-001
  1.0590000e+000
  9.6700000e-001
  9.1300000e-001
  1.0190000e+000
  9.9400000e-001
  8.6300000e-001
  9.6700000e-001
  1.0370000e+000
  9.1500000e-001
  9.5700000e-001
  1.0390000e+000
  9.5800000e-001
  9.4000000e-001
  1.0880000e+000
  1.0760000e+000
  9.4800000e-001
  1.0360000e+000
  1.0920000e+000
  9.9000000e-001
  1.0270000e+000
  1.1250000e+000
  1.0230000e+000
  9.8500000e-001
  1.1330000e+000
  1.1170000e+000
  9.7500000e-001
  1.0700000e+000
  1.1350000e+000
  9.9400000e-001
  1.0340000e+000
  1.1540000e+000
  1.0430000e+000
  9.8900000e-001
  1.1480000e+000
  1.1280000e+000
  9.7700000e-001
  1.0990000e+000
  1.1780000e+000
  1.0080000e+000
  1.0440000e+000
  1.1870000e+000
  1.0750000e+000
  1.0140000e+000
  1.1510000e+000
  1.1230000e+000
  9.8700000e-001
  1.0890000e+000
  1.1590000e+000
  1.0090000e+000
  1.0480000e+000
  1.1950000e+000
  1.0880000e+000
  1.0100000e+000
  1.1490000e+000
  1.1490000e+000
  1.0090000e+000
  1.1400000e+000
  1.2060000e+000
  1.0150000e+000
  1.0570000e+000
  1.2020000e+000
  1.0740000e+000
  1.0080000e+000
  1.1530000e+000
  1.1530000e+000
  1.0250000e+000
  1.1260000e+000
  1.1760000e+000
  1.0290000e+000
  1.0840000e+000
  1.2440000e+000
  1.1170000e+000
  1.0530000e+000
  1.2290000e+000
  1.2160000e+000
  1.0440000e+000
  1.1740000e+000
  1.2370000e+000
  1.0690000e+000
  1.1510000e+000
  1.3200000e+000
  1.1560000e+000
  1.0480000e+000
  1.1730000e+000
  1.1120000e+000
  9.6800000e-001
  1.0920000e+000
  1.1510000e+000
  1.0100000e+000
  1.0460000e+000
  1.1460000e+000
  1.0420000e+000
  9.9200000e-001
  1.1330000e+000
  1.1030000e+000
  9.6200000e-001
  1.0830000e+000
  1.2190000e+000
  1.1390000e+000
  1.3900000e+000
  1.7910000e+000
  1.8430000e+000
  1.8700000e+000
  2.0340000e+000
  1.7860000e+000
  1.2480000e+000
  1.1630000e+000
  1.0950000e+000
  9.2200000e-001
  9.4500000e-001
  1.0250000e+000
  9.3800000e-001
  8.8300000e-001
  1.0040000e+000
  9.9000000e-001
  8.6800000e-001
  9.7700000e-001
  1.0430000e+000
  9.1700000e-001
  9.4400000e-001
  1.0640000e+000
  9.8300000e-001
  9.3500000e-001
  1.0640000e+000
  1.0610000e+000
  9.4700000e-001
  1.0530000e+000
  1.1130000e+000
  9.7700000e-001
  1.0240000e+000
  1.1420000e+000
  1.0640000e+000
  1.0140000e+000
  1.1630000e+000
  1.1440000e+000
  9.9500000e-001
  1.1350000e+000
  1.2370000e+000
  1.0750000e+000
  1.1320000e+000
  1.3090000e+000
  1.1930000e+000
  1.1270000e+000
  1.3180000e+000
  1.2840000e+000
  1.1230000e+000
  1.2900000e+000
  1.3630000e+000
  1.1330000e+000
  1.1980000e+000
  1.3550000e+000
  1.1950000e+000
  1.0920000e+000
  1.2530000e+000
  1.2030000e+000
  1.0270000e+000
  1.1250000e+000
  1.1560000e+000
  9.8300000e-001
  9.9400000e-001
  1.0790000e+000
  9.9200000e-001
  9.3500000e-001
  1.0310000e+000
  1.0100000e+000
  8.9600000e-001
  9.9600000e-001
  1.0230000e+000
  8.7900000e-001
  9.4700000e-001
  1.0670000e+000
  9.8300000e-001
  9.2900000e-001
  1.0380000e+000
  1.0310000e+000
  9.3400000e-001
  1.0430000e+000
  1.0840000e+000
  9.4900000e-001
  9.9000000e-001
  1.1020000e+000
  1.0190000e+000
  9.7700000e-001
  1.1000000e+000
  1.0850000e+000
  9.5400000e-001
  1.0600000e+000
  1.1270000e+000
  9.8100000e-001
  1.0280000e+000
  1.1460000e+000
  1.0320000e+000
  9.9200000e-001
  1.1500000e+000
  1.1350000e+000
  9.9000000e-001
  1.0970000e+000
  1.1480000e+000
  9.9700000e-001
  1.0320000e+000
  1.1220000e+000
  1.0200000e+000
  9.9200000e-001
  1.1590000e+000
  1.1280000e+000
  9.9200000e-001
  1.1140000e+000
  1.1930000e+000
  1.0310000e+000
  1.0750000e+000
  1.2010000e+000
  1.0670000e+000
  1.0130000e+000
  1.1500000e+000
  1.1170000e+000
  9.7200000e-001
  1.0920000e+000
  1.1640000e+000
  1.0150000e+000
  1.0850000e+000
  1.2000000e+000
  1.0650000e+000
  1.0310000e+000
  1.2100000e+000
  1.1820000e+000
  1.0150000e+000
  1.1440000e+000
  1.2240000e+000
  1.0390000e+000
  1.0840000e+000
  1.2140000e+000
  1.0760000e+000
  1.0270000e+000
  1.1830000e+000
  1.1480000e+000
  1.0270000e+000
  1.1590000e+000
  1.2150000e+000
  1.0570000e+000
  1.1220000e+000
  1.2730000e+000
  1.1420000e+000
  1.0930000e+000
  1.2660000e+000
  1.2140000e+000
  1.0660000e+000
  1.2140000e+000
  1.2810000e+000
  1.0810000e+000
  1.1000000e+000
  1.2030000e+000
  1.0750000e+000
  1.0080000e+000
  1.1480000e+000
  1.1110000e+000
  9.5700000e-001
  1.0510000e+000
  1.1210000e+000
  1.0030000e+000
  1.0550000e+000
  1.1650000e+000
  1.0360000e+000
  9.7500000e-001
  1.1230000e+000
  1.1200000e+000
  1.0320000e+000
  1.2890000e+000
  1.5720000e+000
  1.5860000e+000
  1.8660000e+000
  2.1500000e+000
  1.9310000e+000
  1.5760000e+000
  1.4460000e+000
  1.1600000e+000
  9.3900000e-001
  1.0010000e+000
  1.0190000e+000
  8.9900000e-001
  9.4500000e-001
  1.0270000e+000
  9.3400000e-001
  8.8000000e-001
  9.8600000e-001
  9.8100000e-001
  8.9300000e-001
  1.0050000e+000
  1.0520000e+000
  9.1500000e-001
  9.6600000e-001
  1.0810000e+000
  1.0150000e+000
  9.6900000e-001
  1.0780000e+000
  1.0480000e+000
  9.4900000e-001
  1.0780000e+000
  1.1410000e+000
  9.8200000e-001
  1.0370000e+000
  1.1820000e+000
  1.0620000e+000
  1.0230000e+000
  1.2000000e+000
  1.1500000e+000
  1.0190000e+000
  1.1820000e+000
  1.2930000e+000
  1.1090000e+000
  1.1860000e+000
  1.3150000e+000
  1.1730000e+000
  1.1170000e+000
  1.3190000e+000
  1.3150000e+000
  1.1270000e+000
  1.2930000e+000
  1.3470000e+000
  1.1180000e+000
  1.1790000e+000
  1.2990000e+000
  1.1280000e+000
  1.0670000e+000
  1.2030000e+000
  1.1330000e+000
  9.8700000e-001
  1.0800000e+000
  1.1020000e+000
  9.4300000e-001
  9.5900000e-001
  1.0330000e+000
  9.4900000e-001
  9.0100000e-001
  1.0130000e+000
  1.0010000e+000
  8.9200000e-001
  9.9200000e-001
  1.0470000e+000
  9.2200000e-001
  9.6100000e-001
  1.0430000e+000
  9.6200000e-001
  9.3800000e-001
  1.0690000e+000
  1.0320000e+000
  9.1300000e-001
  1.0320000e+000
  1.1020000e+000
  9.6100000e-001
  1.0080000e+000
  1.1210000e+000
  1.0240000e+000
  9.7600000e-001
  1.0980000e+000
  1.0760000e+000
  9.6200000e-001
  1.0790000e+000
  1.1390000e+000
  9.8100000e-001
  1.0230000e+000
  1.1370000e+000
  1.0460000e+000
  1.0090000e+000
  1.1410000e+000
  1.0930000e+000
  9.5500000e-001
  1.0950000e+000
  1.1550000e+000
  9.9600000e-001
  1.0520000e+000
  1.1770000e+000
  1.0640000e+000
  1.0090000e+000
  1.1320000e+000
  1.1120000e+000
  9.9500000e-001
  1.1160000e+000
  1.1860000e+000
  1.0110000e+000
  1.0570000e+000
  1.1920000e+000
  1.0600000e+000
  1.0140000e+000
  1.1700000e+000
  1.1500000e+000
  1.0090000e+000
  1.1500000e+000
  1.2110000e+000
  1.0310000e+000
  1.0800000e+000
  1.1950000e+000
  1.0600000e+000
  1.0130000e+000
  1.1880000e+000
  1.1690000e+000
  1.0090000e+000
  1.1310000e+000
  1.2030000e+000
  1.0390000e+000
  1.1030000e+000
  1.2260000e+000
  1.0900000e+000
  1.0650000e+000
  1.2620000e+000
  1.2000000e+000
  1.0330000e+000
  1.1690000e+000
  1.2400000e+000
  1.0650000e+000
  1.1450000e+000
  1.3090000e+000
  1.1530000e+000
  1.1050000e+000
  1.2860000e+000
  1.2210000e+000
  1.0440000e+000
  1.1650000e+000
  1.1870000e+000
  9.8900000e-001
  1.0410000e+000
  1.1730000e+000
  1.0510000e+000
  9.8200000e-001
  1.0950000e+000
  1.0860000e+000
  9.7700000e-001
  1.0940000e+000
  1.1280000e+000
  9.7200000e-001
  1.0280000e+000
  1.1780000e+000
  1.1210000e+000
  1.2070000e+000
  1.6130000e+000
  1.7500000e+000
  1.7220000e+000
  2.0010000e+000
  1.9250000e+000
  1.3710000e+000
  1.1540000e+000
  1.1370000e+000
  9.8000000e-001
  9.1500000e-001
  1.0140000e+000
  9.8000000e-001
  8.8300000e-001
  9.9100000e-001
  1.0320000e+000
  9.1000000e-001
  9.5500000e-001
  1.0440000e+000
  9.4700000e-001
  9.1900000e-001
  1.0620000e+000
  1.0560000e+000
  9.3800000e-001
  1.0500000e+000
  1.1130000e+000
  9.6800000e-001
  1.0080000e+000
  1.1090000e+000
  1.0200000e+000
  9.9500000e-001
  1.1460000e+000
  1.1220000e+000
  9.8000000e-001
  1.1050000e+000
  1.1860000e+000
  1.0320000e+000
  1.1030000e+000
  1.2570000e+000
  1.1230000e+000
  1.0990000e+000
  1.3190000e+000
  1.2700000e+000
  1.0750000e+000
  1.2340000e+000
  1.3230000e+000
  1.1280000e+000
  1.1950000e+000
  1.3290000e+000
  1.1880000e+000
  1.1640000e+000
  1.3410000e+000
  1.2490000e+000
  1.0790000e+000
  1.2240000e+000
  1.2700000e+000
  1.0510000e+000
  1.0720000e+000
  1.1600000e+000
  1.0340000e+000
  9.8700000e-001
  1.0990000e+000
  1.0420000e+000
  8.9400000e-001
  9.9100000e-001
  1.0320000e+000
  9.0100000e-001
  9.4100000e-001
  1.0200000e+000
  9.3400000e-001
  9.1100000e-001
  1.0220000e+000
  9.8300000e-001
  8.9300000e-001
  1.0130000e+000
  1.0530000e+000
  9.2500000e-001
  9.7700000e-001
  1.0740000e+000
  9.9100000e-001
  9.6300000e-001
  1.0940000e+000
  1.0720000e+000
  9.6300000e-001
  1.0620000e+000
  1.0940000e+000
  9.7200000e-001
  1.0220000e+000
  1.1300000e+000
  1.0230000e+000
  9.8200000e-001
  1.1270000e+000
  1.0930000e+000
  9.6100000e-001
  1.0700000e+000
  1.1350000e+000
  9.9700000e-001
  1.0520000e+000
  1.1540000e+000
  1.0270000e+000
  9.9500000e-001
  1.1410000e+000
  1.1070000e+000
  9.8600000e-001
  1.1080000e+000
  1.1390000e+000
  9.8000000e-001
  1.0340000e+000
  1.1610000e+000
  1.0370000e+000
  9.8600000e-001
  1.1530000e+000
  1.1260000e+000
  1.0040000e+000
  1.1370000e+000
  1.2030000e+000
  1.0380000e+000
  1.1020000e+000
  1.2190000e+000
  1.0740000e+000
  1.0340000e+000
  1.2070000e+000
  1.1860000e+000
  1.0500000e+000
  1.1920000e+000
  1.2420000e+000
  1.0690000e+000
  1.1600000e+000
  1.2900000e+000
  1.1120000e+000
  1.0420000e+000
  1.1640000e+000
  1.1040000e+000
  9.8200000e-001
  1.0940000e+000
  1.1450000e+000
  9.7700000e-001
  1.0080000e+000
  1.1050000e+000
  1.0270000e+000
  9.9900000e-001
  1.1410000e+000
  1.1000000e+000
  9.6700000e-001
  1.0860000e+000
  1.1760000e+000
  1.0830000e+000
  1.2760000e+000
  1.6230000e+000
  1.6590000e+000
  1.7420000e+000
  1.9650000e+000
  1.7290000e+000
  1.1860000e+000
  1.1250000e+000
  1.0840000e+000
  9.3000000e-001
  9.6900000e-001
  1.0410000e+000
  9.4800000e-001
  9.1100000e-001
  1.0310000e+000
  9.9200000e-001
  8.9400000e-001
  1.0180000e+000
  1.0710000e+000
  9.4300000e-001
  9.9600000e-001
  1.0970000e+000
  9.9400000e-001
  9.5000000e-001
  1.0790000e+000
  1.0720000e+000
  9.6900000e-001
  1.0880000e+000
  1.1280000e+000
  9.9700000e-001
  1.0650000e+000
  1.1720000e+000
  1.0570000e+000
  1.0480000e+000
  1.2170000e+000
  1.1630000e+000
  1.0220000e+000
  1.1450000e+000
  1.2000000e+000
  1.0390000e+000
  1.1170000e+000
  1.3010000e+000
  1.1790000e+000
  1.1090000e+000
  1.2700000e+000
  1.2670000e+000
  1.1140000e+000
  1.3230000e+000
  1.3880000e+000
  1.1500000e+000
  1.2290000e+000
  1.3570000e+000
  1.1930000e+000
  1.1200000e+000
  1.2490000e+000
  1.1720000e+000
  1.0180000e+000
  1.1160000e+000
  1.1220000e+000
  9.5000000e-001
  9.8700000e-001
  1.0560000e+000
  9.4800000e-001
  9.2100000e-001
  1.0310000e+000
  1.0000000e+000
  8.9900000e-001
  9.9700000e-001
  1.0330000e+000
  9.1100000e-001
  9.5900000e-001
  1.0480000e+000
  9.5400000e-001
  9.2700000e-001
  1.0480000e+000
  1.0250000e+000
  9.1900000e-001
  1.0320000e+000
  1.0930000e+000
  9.6100000e-001
  1.0150000e+000
  1.1130000e+000
  1.0130000e+000
  9.8900000e-001
  1.1200000e+000
  1.0780000e+000
  9.6900000e-001
  1.0880000e+000
  1.1250000e+000
  9.7700000e-001
  1.0340000e+000
  1.1690000e+000
  1.0520000e+000
  1.0140000e+000
  1.1390000e+000
  1.0840000e+000
  9.7500000e-001
  1.1050000e+000
  1.1560000e+000
  1.0060000e+000
  1.0740000e+000
  1.1740000e+000
  1.0460000e+000
  1.0110000e+000
  1.1480000e+000
  1.0920000e+000
  9.8100000e-001
  1.1270000e+000
  1.1730000e+000
  1.0080000e+000
  1.0560000e+000
  1.1540000e+000
  1.0620000e+000
  1.0420000e+000
  1.1950000e+000
  1.1370000e+000
  9.9000000e-001
  1.1030000e+000
  1.1550000e+000
  1.0250000e+000
  1.1130000e+000
  1.2450000e+000
  1.0970000e+000
  1.0420000e+000
  1.1780000e+000
  1.1580000e+000
  1.0420000e+000
  1.1890000e+000
  1.2400000e+000
  1.0640000e+000
  1.1450000e+000
  1.3000000e+000
  1.1370000e+000
  1.0920000e+000
  1.2620000e+000
  1.1730000e+000
  1.0050000e+000
  1.1250000e+000
  1.1590000e+000
  9.8500000e-001
  1.0230000e+000
  1.1450000e+000
  1.0340000e+000
  9.9500000e-001
  1.1140000e+000
  1.0720000e+000
  9.6800000e-001
  1.0880000e+000
  1.1310000e+000
  9.9000000e-001
  1.0740000e+000
  1.2700000e+000
  1.2350000e+000
  1.4350000e+000
  1.8710000e+000
  1.9970000e+000
  1.8730000e+000
  1.9120000e+000
  1.6540000e+000
  1.1360000e+000
  1.0340000e+000
  1.0380000e+000
  9.2600000e-001
  9.0600000e-001
  1.0220000e+000
  9.8000000e-001
  8.7900000e-001
  9.9200000e-001
  1.0230000e+000
  8.9700000e-001
  9.4800000e-001
  1.0240000e+000
  9.5400000e-001
  9.3900000e-001
  1.0520000e+000
  1.0240000e+000
  9.3000000e-001
  1.0270000e+000
  1.0700000e+000
  9.5300000e-001
  1.0320000e+000
  1.1490000e+000
  1.0290000e+000
  1.0100000e+000
  1.1500000e+000
  1.1140000e+000
  1.0110000e+000
  1.1490000e+000
  1.2120000e+000
  1.0370000e+000
  1.1260000e+000
  1.2790000e+000
  1.1160000e+000
  1.0750000e+000
  1.2980000e+000
  1.2650000e+000
  1.1050000e+000
  1.2810000e+000
  1.3460000e+000
  1.1330000e+000
  1.2420000e+000
  1.3900000e+000
  1.2060000e+000
  1.1530000e+000
  1.3310000e+000
  1.2560000e+000
  1.0790000e+000
  1.1930000e+000
  1.1680000e+000
  1.0040000e+000
  1.0690000e+000
  1.1550000e+000
  1.0080000e+000
  9.5700000e-001
  1.0600000e+000
  1.0160000e+000
  9.1300000e-001
  1.0140000e+000
  1.0380000e+000
  9.0200000e-001
  9.5400000e-001
  1.0430000e+000
  9.3800000e-001
  9.3000000e-001
  1.0410000e+000
  9.8300000e-001
  8.9800000e-001
  1.0310000e+000
  1.0670000e+000
  9.3400000e-001
  1.0010000e+000
  1.1040000e+000
  9.9600000e-001
  9.7200000e-001
  1.0990000e+000
  1.0650000e+000
  9.5900000e-001
  1.0800000e+000
  1.1140000e+000
  9.7600000e-001
  1.0220000e+000
  1.1080000e+000
  1.0200000e+000
  1.0030000e+000
  1.1310000e+000
  1.0670000e+000
  9.8500000e-001
  1.1310000e+000
  1.1610000e+000
  9.9500000e-001
  1.0560000e+000
  1.1530000e+000
  1.0240000e+000
  1.0090000e+000
  1.1540000e+000
  1.0970000e+000
  9.8000000e-001
  1.1050000e+000
  1.1460000e+000
  9.9400000e-001
  1.0640000e+000
  1.1880000e+000
  1.0610000e+000
  1.0370000e+000
  1.1700000e+000
  1.1180000e+000
  1.0090000e+000
  1.1390000e+000
  1.1700000e+000
  1.0180000e+000
  1.0800000e+000
  1.1910000e+000
  1.0560000e+000
  1.0340000e+000
  1.1720000e+000
  1.1090000e+000
  1.0080000e+000
  1.1530000e+000
  1.1970000e+000
  1.0250000e+000
  1.0890000e+000
  1.2010000e+000
  1.0760000e+000
  1.0650000e+000
  1.2530000e+000
  1.1880000e+000
  1.0340000e+000
  1.1730000e+000
  1.2030000e+000
  1.0360000e+000
  1.1210000e+000
  1.2190000e+000
  1.0840000e+000
  1.0860000e+000
  1.2950000e+000
  1.2420000e+000
  1.0750000e+000
  1.2390000e+000
  1.2680000e+000
  1.0560000e+000
  1.1130000e+000
  1.1960000e+000
  1.0290000e+000
  1.0050000e+000
  1.1230000e+000
  1.0660000e+000
  9.7600000e-001
  1.0980000e+000
  1.1350000e+000
  9.9700000e-001
  1.0560000e+000
  1.1450000e+000
  1.0200000e+000
  1.0060000e+000
  1.1890000e+000
  1.2330000e+000
  1.2260000e+000
  1.6460000e+000
  1.9170000e+000
  1.8870000e+000
  2.0300000e+000
  1.9900000e+000
  1.4440000e+000
  1.1130000e+000
  1.1270000e+000
  1.0160000e+000
  8.9700000e-001
  9.8900000e-001
  1.0010000e+000
  8.7700000e-001
  9.3100000e-001
  1.0060000e+000
  9.1600000e-001
  9.0600000e-001
  1.0270000e+000
  9.9400000e-001
  9.0200000e-001
  1.0090000e+000
  1.0390000e+000
  9.2600000e-001
  1.0080000e+000
  1.1040000e+000
  1.0040000e+000
  9.8700000e-001
  1.1050000e+000
  1.0640000e+000
  9.6900000e-001
  1.0890000e+000
  1.1330000e+000
  1.0000000e+000
  1.0690000e+000
  1.2000000e+000
  1.0840000e+000
  1.0790000e+000
  1.2540000e+000
  1.1870000e+000
  1.0610000e+000
  1.2340000e+000
  1.2860000e+000
  1.1070000e+000
  1.2210000e+000
  1.3640000e+000
  1.1870000e+000
  1.1500000e+000
  1.3400000e+000
  1.2800000e+000
  1.1160000e+000
  1.2820000e+000
  1.3010000e+000
  1.0970000e+000
  1.1590000e+000
  1.2450000e+000
  1.0940000e+000
  1.0590000e+000
  1.1830000e+000
  1.0840000e+000
  9.4700000e-001
  1.0360000e+000
  1.0480000e+000
  9.1500000e-001
  9.6700000e-001
  1.0360000e+000
  9.1900000e-001
  8.8900000e-001
  1.0130000e+000
  9.8300000e-001
  9.0600000e-001
  1.0280000e+000
  1.0500000e+000
  9.3300000e-001
  9.9400000e-001
  1.0700000e+000
  9.6700000e-001
  9.5200000e-001
  1.0840000e+000
  1.0550000e+000
  9.5300000e-001
  1.0330000e+000
  1.0650000e+000
  9.4800000e-001
  1.0310000e+000
  1.1300000e+000
  1.0140000e+000
  1.0040000e+000
  1.1160000e+000
  1.0560000e+000
  9.7100000e-001
  1.1080000e+000
  1.1320000e+000
  9.7300000e-001
  1.0480000e+000
  1.1610000e+000
  1.0440000e+000
  1.0190000e+000
  1.1310000e+000
  1.0930000e+000
  1.0060000e+000
  1.1450000e+000
  1.1600000e+000
  9.9400000e-001
  1.0690000e+000
  1.1860000e+000
  1.0470000e+000
  1.0230000e+000
  1.1560000e+000
  1.0800000e+000
  9.8500000e-001
  1.1260000e+000
  1.1760000e+000
  1.0130000e+000
  1.0860000e+000
  1.1950000e+000
  1.0530000e+000
  1.0420000e+000
  1.1810000e+000
  1.1280000e+000
  1.0160000e+000
  1.1420000e+000
  1.1730000e+000
  1.0150000e+000
  1.0840000e+000
  1.1810000e+000
  1.0510000e+000
  1.0460000e+000
  1.1890000e+000
  1.1320000e+000
  1.0190000e+000
  1.1390000e+000
  1.1600000e+000
  1.0160000e+000
  1.1040000e+000
  1.2000000e+000
  1.0570000e+000
  1.0370000e+000
  1.1880000e+000
  1.1200000e+000
  1.0100000e+000
  1.1410000e+000
  1.1880000e+000
  1.0390000e+000
  1.1330000e+000
  1.2440000e+000
  1.0750000e+000
  1.0620000e+000
  1.2310000e+000
  1.1580000e+000
  1.0310000e+000
  1.1950000e+000
  1.2290000e+000
  1.0660000e+000
  1.1740000e+000
  1.2770000e+000
  1.0940000e+000
  1.0810000e+000
  1.2330000e+000
  1.1250000e+000
  9.9500000e-001
  1.1110000e+000
  1.1360000e+000
  9.8500000e-001
  1.0520000e+000
  1.1440000e+000
  1.0250000e+000
  1.0040000e+000
  1.1220000e+000
  1.0660000e+000
  9.5900000e-001
  1.0750000e+000
  1.1230000e+000
  1.0190000e+000
  1.1770000e+000
  1.4460000e+000
  1.5110000e+000
  1.7490000e+000
  2.1400000e+000
  2.0860000e+000
  1.7490000e+000
  1.6030000e+000
  1.3030000e+000
  9.6800000e-001
  9.7700000e-001
  1.0320000e+000
  9.1200000e-001
  8.9400000e-001
  9.9700000e-001
  9.5200000e-001
  8.6900000e-001
  9.8500000e-001
  1.0130000e+000
  8.8200000e-001
  9.4700000e-001
  1.0620000e+000
  9.8300000e-001
  9.7500000e-001
  1.0740000e+000
  1.0140000e+000
  9.3100000e-001
  1.0610000e+000
  1.1000000e+000
  9.6700000e-001
  1.0410000e+000
  1.1310000e+000
  1.0130000e+000
  1.0000000e+000
  1.1500000e+000
  1.0990000e+000
  1.0200000e+000
  1.1880000e+000
  1.2190000e+000
  1.0550000e+000
  1.1560000e+000
  1.2680000e+000
  1.1180000e+000
  1.1110000e+000
  1.2990000e+000
  1.2350000e+000
  1.1080000e+000
  1.3270000e+000
  1.3740000e+000
  1.1490000e+000
  1.2520000e+000
  1.3730000e+000
  1.2120000e+000
  1.1860000e+000
  1.3510000e+000
  1.2340000e+000
  1.0790000e+000
  1.2090000e+000
  1.1890000e+000
  1.0040000e+000
  1.0530000e+000
  1.1200000e+000
  9.8600000e-001
  9.5300000e-001
  1.0480000e+000
  9.9500000e-001
  8.9100000e-001
  1.0040000e+000
  1.0230000e+000
  9.0500000e-001
  9.6900000e-001
  1.0460000e+000
  9.4400000e-001
  9.3300000e-001
  1.0370000e+000
  9.9600000e-001
  9.1700000e-001
  1.0290000e+000
  1.0430000e+000
  9.2100000e-001
  1.0030000e+000
  1.0890000e+000
  9.9200000e-001
  9.9200000e-001
  1.1220000e+000
  1.0570000e+000
  9.5300000e-001
  1.0550000e+000
  1.0950000e+000
  9.7800000e-001
  1.0550000e+000
  1.1360000e+000
  1.0150000e+000
  1.0060000e+000
  1.1270000e+000
  1.0670000e+000
  9.9200000e-001
  1.1300000e+000
  1.1450000e+000
  9.9100000e-001
  1.0520000e+000
  1.1420000e+000
  1.0280000e+000
  1.0190000e+000
  1.1370000e+000
  1.0650000e+000
  9.7700000e-001
  1.1030000e+000
  1.1310000e+000
  1.0000000e+000
  1.0900000e+000
  1.1860000e+000
  1.0420000e+000
  1.0360000e+000
  1.1670000e+000
  1.0800000e+000
  1.0010000e+000
  1.1440000e+000
  1.1550000e+000
  1.0110000e+000
  1.0750000e+000
  1.1640000e+000
  1.0250000e+000
  1.0380000e+000
  1.1970000e+000
  1.1200000e+000
  1.0230000e+000
  1.1530000e+000
  1.1680000e+000
  1.0230000e+000
  1.0990000e+000
  1.1650000e+000
  1.0310000e+000
  1.0410000e+000
  1.1950000e+000
  1.1320000e+000
  1.0330000e+000
  1.1790000e+000
  1.2160000e+000
  1.0480000e+000
  1.1450000e+000
  1.2540000e+000
  1.0890000e+000
  1.0990000e+000
  1.2730000e+000
  1.1930000e+000
  1.0660000e+000
  1.1960000e+000
  1.2280000e+000
  1.0670000e+000
  1.1420000e+000
  1.2310000e+000
  1.0700000e+000
  1.0650000e+000
  1.1930000e+000
  1.0980000e+000
  9.8600000e-001
  1.1030000e+000
  1.1180000e+000
  9.8000000e-001
  1.0550000e+000
  1.1400000e+000
  1.0140000e+000
  9.9600000e-001
  1.1110000e+000
  1.0550000e+000
  9.7100000e-001
  1.1050000e+000
  1.1760000e+000
  1.0810000e+000
  1.3410000e+000
  1.7020000e+000
  1.6870000e+000
  1.7820000e+000
  1.9570000e+000
  1.6700000e+000
  1.2140000e+000
  1.1530000e+000
  1.0530000e+000
  9.0500000e-001
  9.6800000e-001
  1.0500000e+000
  9.4300000e-001
  9.3900000e-001
  1.0500000e+000
  1.0050000e+000
  9.3300000e-001
  1.0500000e+000
  1.0660000e+000
  9.3800000e-001
  1.0050000e+000
  1.0780000e+000
  9.5200000e-001
  9.5400000e-001
  1.0880000e+000
  1.0410000e+000
  9.5700000e-001
  1.0970000e+000
  1.1280000e+000
  9.7800000e-001
  1.0740000e+000
  1.1820000e+000
  1.0570000e+000
  1.0550000e+000
  1.1950000e+000
  1.1120000e+000
  1.0220000e+000
  1.1860000e+000
  1.2300000e+000
  1.0620000e+000
  1.1880000e+000
  1.3350000e+000
  1.1580000e+000
  1.1460000e+000
  1.3470000e+000
  1.2950000e+000
  1.1550000e+000
  1.3320000e+000
  1.3410000e+000
  1.1110000e+000
  1.2150000e+000
  1.3590000e+000
  1.1580000e+000
  1.1270000e+000
  1.2560000e+000
  1.1490000e+000
  1.0270000e+000
  1.1500000e+000
  1.1540000e+000
  9.8200000e-001
  1.0430000e+000
  1.0920000e+000
  9.5200000e-001
  9.3900000e-001
  1.0390000e+000
  9.7300000e-001
  8.8500000e-001
  9.9500000e-001
  1.0060000e+000
  8.8500000e-001
  9.6700000e-001
  1.0340000e+000
  9.2700000e-001
  9.2500000e-001
  1.0460000e+000
  1.0000000e+000
  9.1000000e-001
  1.0200000e+000
  1.0550000e+000
  9.4500000e-001
  1.0130000e+000
  1.0950000e+000
  9.9600000e-001
  1.0010000e+000
  1.1000000e+000
  1.0360000e+000
  9.5900000e-001
  1.0800000e+000
  1.0920000e+000
  9.6400000e-001
  1.0550000e+000
  1.1530000e+000
  1.0280000e+000
  1.0280000e+000
  1.1500000e+000
  1.0600000e+000
  9.7500000e-001
  1.1030000e+000
  1.1230000e+000
  9.8500000e-001
  1.0660000e+000
  1.1450000e+000
  1.0250000e+000
  1.0230000e+000
  1.1370000e+000
  1.0760000e+000
  9.7600000e-001
  1.1020000e+000
  1.1370000e+000
  1.0000000e+000
  1.0950000e+000
  1.1720000e+000
  1.0330000e+000
  1.0220000e+000
  1.1480000e+000
  1.0930000e+000
  9.9500000e-001
  1.1160000e+000
  1.1300000e+000
  9.8700000e-001
  1.0690000e+000
  1.1840000e+000
  1.0570000e+000
  1.0610000e+000
  1.1920000e+000
  1.1310000e+000
  1.0330000e+000
  1.1870000e+000
  1.1960000e+000
  1.0270000e+000
  1.1140000e+000
  1.2210000e+000
  1.0740000e+000
  1.0800000e+000
  1.2380000e+000
  1.1510000e+000
  1.0390000e+000
  1.1790000e+000
  1.1830000e+000
  1.0190000e+000
  1.1170000e+000
  1.1970000e+000
  1.0440000e+000
  1.0370000e+000
  1.1510000e+000
  1.0780000e+000
  9.9400000e-001
  1.1280000e+000
  1.1490000e+000
  9.8300000e-001
  1.0440000e+000
  1.1200000e+000
  9.9700000e-001
  9.8200000e-001
  1.0850000e+000
  1.0380000e+000
  9.7500000e-001
  1.1650000e+000
  1.3130000e+000
  1.2980000e+000
  1.6610000e+000
  1.9910000e+000
  1.8900000e+000
  1.7980000e+000
  1.7200000e+000
  1.2840000e+000
  9.9500000e-001
  1.0420000e+000
  1.0250000e+000
  8.9600000e-001
  9.5300000e-001
  1.0130000e+000
  9.0500000e-001
  9.1300000e-001
  1.0340000e+000
  9.9400000e-001
  9.1600000e-001
  1.0230000e+000
  1.0380000e+000
  9.2200000e-001
  1.0010000e+000
  1.0620000e+000
  9.5400000e-001
  9.8300000e-001
  1.0930000e+000
  1.0190000e+000
  9.8200000e-001
  1.1370000e+000
  1.1490000e+000
  9.9200000e-001
  1.0880000e+000
  1.1910000e+000
  1.0340000e+000
  1.0220000e+000
  1.1680000e+000
  1.1110000e+000
  1.0310000e+000
  1.2020000e+000
  1.2300000e+000
  1.0700000e+000
  1.1920000e+000
  1.3140000e+000
  1.1550000e+000
  1.1840000e+000
  1.3800000e+000
  1.2820000e+000
  1.1280000e+000
  1.3070000e+000
  1.3170000e+000
  1.1070000e+000
  1.2240000e+000
  1.3290000e+000
  1.1090000e+000
  1.1250000e+000
  1.2610000e+000
  1.1330000e+000
  1.0030000e+000
  1.1170000e+000
  1.1220000e+000
  9.5700000e-001
  1.0130000e+000
  1.0670000e+000
  9.3600000e-001
  9.2000000e-001
  1.0270000e+000
  9.6300000e-001
  8.9700000e-001
  1.0080000e+000
  1.0230000e+000
  8.9900000e-001
  9.6100000e-001
  1.0310000e+000
  9.4500000e-001
  9.6400000e-001
  1.0720000e+000
  1.0140000e+000
  9.4400000e-001
  1.0830000e+000
  1.1030000e+000
  9.6400000e-001
  1.0230000e+000
  1.0950000e+000
  9.9000000e-001
  1.0010000e+000
  1.1230000e+000
  1.0500000e+000
  9.7100000e-001
  1.1050000e+000
  1.1220000e+000
  9.7700000e-001
  1.0720000e+000
  1.1680000e+000
  1.0280000e+000
  1.0370000e+000
  1.1740000e+000
  1.0900000e+000
  9.9600000e-001
  1.1250000e+000
  1.1360000e+000
  9.9900000e-001
  1.0930000e+000
  1.1680000e+000
  1.0220000e+000
  1.0250000e+000
  1.1720000e+000
  1.0990000e+000
  1.0090000e+000
  1.1410000e+000
  1.1420000e+000
  9.8700000e-001
  1.0590000e+000
  1.1510000e+000
  1.0310000e+000
  1.0340000e+000
  1.1820000e+000
  1.1120000e+000
  1.0110000e+000
  1.1560000e+000
  1.1770000e+000
  1.0220000e+000
  1.1020000e+000
  1.1580000e+000
  1.0360000e+000
  1.0560000e+000
  1.1910000e+000
  1.0950000e+000
  9.9900000e-001
  1.1370000e+000
  1.1420000e+000
  9.9900000e-001
  1.1050000e+000
  1.2020000e+000
  1.0370000e+000
  1.0270000e+000
  1.1760000e+000
  1.1310000e+000
  1.0420000e+000
  1.1930000e+000
  1.2120000e+000
  1.0380000e+000
  1.1180000e+000
  1.2390000e+000
  1.0830000e+000
  1.0980000e+000
  1.2710000e+000
  1.1880000e+000
  1.0700000e+000
  1.2160000e+000
  1.2350000e+000
  1.0570000e+000
  1.1590000e+000
  1.2510000e+000
  1.0800000e+000
  1.0660000e+000
  1.1930000e+000
  1.0900000e+000
  9.9500000e-001
  1.1200000e+000
  1.1040000e+000
  9.6700000e-001
  1.0900000e+000
  1.1970000e+000
  1.0330000e+000
  1.0180000e+000
  1.1140000e+000
  1.0320000e+000
  9.6800000e-001
  1.1580000e+000
  1.2870000e+000
  1.2380000e+000
  1.6130000e+000
  1.9640000e+000
  1.9310000e+000
  1.9650000e+000
  1.9920000e+000
  1.5510000e+000
  1.0850000e+000
  1.0670000e+000
  1.0200000e+000
  8.7700000e-001
  9.4300000e-001
  9.9900000e-001
  8.9800000e-001
  9.1100000e-001
  1.0220000e+000
  9.6400000e-001
  8.9100000e-001
  1.0160000e+000
  1.0220000e+000
  8.9900000e-001
  9.9100000e-001
  1.0690000e+000
  9.5500000e-001
  9.6300000e-001
  1.0840000e+000
  1.0160000e+000
  9.6200000e-001
  1.0950000e+000
  1.0990000e+000
  9.4700000e-001
  1.0410000e+000
  1.1610000e+000
  1.0360000e+000
  1.0500000e+000
  1.1920000e+000
  1.1180000e+000
  1.0310000e+000
  1.1740000e+000
  1.1790000e+000
  1.0520000e+000
  1.1930000e+000
  1.3280000e+000
  1.1390000e+000
  1.1560000e+000
  1.3450000e+000
  1.2400000e+000
  1.1030000e+000
  1.2730000e+000
  1.3480000e+000
  1.1500000e+000
  1.2850000e+000
  1.3740000e+000
  1.1500000e+000
  1.1270000e+000
  1.2840000e+000
  1.1550000e+000
  1.0190000e+000
  1.1280000e+000
  1.1120000e+000
  9.6200000e-001
  1.0240000e+000
  1.0600000e+000
  9.2200000e-001
  9.2100000e-001
  1.0230000e+000
  9.7100000e-001
  8.9600000e-001
  1.0080000e+000
  1.0140000e+000
  8.8900000e-001
  9.7500000e-001
  1.0500000e+000
  9.4100000e-001
  9.4700000e-001
  1.0480000e+000
  9.8000000e-001
  9.1700000e-001
  1.0510000e+000
  1.0560000e+000
  9.3100000e-001
  1.0130000e+000
  1.0970000e+000
  9.9700000e-001
  1.0150000e+000
  1.1370000e+000
  1.0550000e+000
  9.6900000e-001
  1.0990000e+000
  1.1080000e+000
  9.8000000e-001
  1.0480000e+000
  1.1130000e+000
  1.0110000e+000
  1.0320000e+000
  1.1460000e+000
  1.0460000e+000
  9.7700000e-001
  1.1260000e+000
  1.1260000e+000
  9.7300000e-001
  1.0620000e+000
  1.1640000e+000
  1.0370000e+000
  1.0420000e+000
  1.1830000e+000
  1.0890000e+000
  9.9200000e-001
  1.1250000e+000
  1.1420000e+000
  1.0040000e+000
  1.1050000e+000
  1.1740000e+000
  1.0140000e+000
  1.0290000e+000
  1.1720000e+000
  1.0980000e+000
  1.0130000e+000
  1.1460000e+000
  1.1410000e+000
  9.9000000e-001
  1.1020000e+000
  1.1890000e+000
  1.0430000e+000
  1.0480000e+000
  1.1840000e+000
  1.0990000e+000
  1.0230000e+000
  1.1740000e+000
  1.1680000e+000
  9.9500000e-001
  1.0790000e+000
  1.1950000e+000
  1.0470000e+000
  1.0530000e+000
  1.2110000e+000
  1.1210000e+000
  1.0310000e+000
  1.1810000e+000
  1.1910000e+000
  1.0470000e+000
  1.1700000e+000
  1.2580000e+000
  1.0690000e+000
  1.0760000e+000
  1.2110000e+000
  1.1160000e+000
  1.0500000e+000
  1.2330000e+000
  1.2340000e+000
  1.0640000e+000
  1.1830000e+000
  1.2730000e+000
  1.1020000e+000
  1.1050000e+000
  1.2190000e+000
  1.0930000e+000
  1.0010000e+000
  1.1110000e+000
  1.0900000e+000
  9.6600000e-001
  1.0690000e+000
  1.1550000e+000
  1.0180000e+000
  1.0270000e+000
  1.1330000e+000
  1.0570000e+000
  9.7700000e-001
  1.1000000e+000
  1.1260000e+000
  1.0240000e+000
  1.2290000e+000
  1.5020000e+000
  1.5200000e+000
  1.7610000e+000
  2.0720000e+000
  1.9320000e+000
  1.6000000e+000
  1.4870000e+000
  1.2230000e+000
  9.4300000e-001
  9.8000000e-001
  1.0370000e+000
  9.1900000e-001
  9.2000000e-001
  1.0110000e+000
  9.4800000e-001
  8.8700000e-001
  1.0040000e+000
  1.0180000e+000
  9.0200000e-001
  9.8200000e-001
  1.0530000e+000
  9.4900000e-001
  9.8000000e-001
  1.1030000e+000
  1.0230000e+000
  9.4700000e-001
  1.0790000e+000
  1.0740000e+000
  9.5000000e-001
  1.0530000e+000
  1.1440000e+000
  1.0130000e+000
  1.0320000e+000
  1.1600000e+000
  1.0750000e+000
  1.0140000e+000
  1.1580000e+000
  1.1650000e+000
  1.0340000e+000
  1.1650000e+000
  1.2610000e+000
  1.0930000e+000
  1.1400000e+000
  1.2890000e+000
  1.2010000e+000
  1.1080000e+000
  1.3040000e+000
  1.3520000e+000
  1.1560000e+000
  1.2860000e+000
  1.3790000e+000
  1.1870000e+000
  1.2150000e+000
  1.3660000e+000
  1.1980000e+000
  1.0590000e+000
  1.1840000e+000
  1.1610000e+000
  9.9500000e-001
  1.0660000e+000
  1.0990000e+000
  9.5400000e-001
  9.5900000e-001
  1.0510000e+000
  9.7200000e-001
  8.9100000e-001
  9.9000000e-001
  9.8700000e-001
  8.8800000e-001
  9.8200000e-001
  1.0290000e+000
  9.0600000e-001
  9.4300000e-001
  1.0420000e+000
  9.8100000e-001
  9.1600000e-001
  1.0160000e+000
  1.0090000e+000
  9.1700000e-001
  1.0270000e+000
  1.0900000e+000
  9.6700000e-001
  9.8500000e-001
  1.0950000e+000
  1.0240000e+000
  9.4900000e-001
  1.0800000e+000
  1.0900000e+000
  9.6900000e-001
  1.0550000e+000
  1.1270000e+000
  1.0030000e+000
  1.0200000e+000
  1.1120000e+000
  1.0320000e+000
  9.8700000e-001
  1.1370000e+000
  1.1090000e+000
  9.6300000e-001
  1.0640000e+000
  1.1460000e+000
  1.0150000e+000
  1.0270000e+000
  1.1410000e+000
  1.0520000e+000
  9.8900000e-001
  1.1200000e+000
  1.1140000e+000
  9.8000000e-001
  1.0860000e+000
  1.1610000e+000
  1.0320000e+000
  1.0420000e+000
  1.1450000e+000
  1.0600000e+000
  1.0040000e+000
  1.1450000e+000
  1.1420000e+000
  1.0130000e+000
  1.0850000e+000
  1.1320000e+000
  1.0310000e+000
  1.0740000e+000
  1.2170000e+000
  1.1350000e+000
  1.0330000e+000
  1.1780000e+000
  1.2370000e+000
  1.0890000e+000
  1.2310000e+000
  1.3100000e+000
  1.0950000e+000
  1.1080000e+000
  1.2430000e+000
  1.1370000e+000
  1.0690000e+000
  1.2120000e+000
  1.1280000e+000
  9.8900000e-001
  1.0780000e+000
  1.1780000e+000
  1.0310000e+000
  1.0430000e+000
  1.1600000e+000
  1.0740000e+000
  9.9400000e-001
  1.1200000e+000
  1.0880000e+000
  9.3500000e-001
  1.0470000e+000
  1.1330000e+000
  1.0320000e+000
  1.1390000e+000
  1.4630000e+000
  1.5280000e+000
  1.6310000e+000
  1.9720000e+000
  2.0090000e+000
  1.6490000e+000
  1.4830000e+000
  1.2810000e+000
  9.7200000e-001
  9.3900000e-001
  1.0220000e+000
  9.5000000e-001
  9.0500000e-001
  1.0230000e+000
  1.0150000e+000
  8.6900000e-001
  9.4300000e-001
  1.0340000e+000
  9.3600000e-001
  9.5800000e-001
  1.0810000e+000
  1.0150000e+000
  9.4900000e-001
  1.0440000e+000
  1.0440000e+000
  9.5800000e-001
  1.0530000e+000
  1.1160000e+000
  9.8700000e-001
  1.0250000e+000
  1.1420000e+000
  1.0610000e+000
  1.0110000e+000
  1.1670000e+000
  1.1440000e+000
  1.0140000e+000
  1.1370000e+000
  1.2330000e+000
  1.0830000e+000
  1.1370000e+000
  1.3180000e+000
  1.1960000e+000
  1.0990000e+000
  1.2850000e+000
  1.2770000e+000
  1.1040000e+000
  1.2790000e+000
  1.3680000e+000
  1.1590000e+000
  1.1950000e+000
  1.3590000e+000
  1.2230000e+000
  1.1070000e+000
  1.3030000e+000
  1.2870000e+000
  1.0660000e+000
  1.1600000e+000
  1.1770000e+000
  9.9100000e-001
  1.0330000e+000
  1.1210000e+000
  1.0140000e+000
  9.4500000e-001
  1.0310000e+000
  9.8900000e-001
  8.8000000e-001
  9.8600000e-001
  1.0280000e+000
  9.1500000e-001
  9.4800000e-001
  1.0360000e+000
  9.3600000e-001
  8.9900000e-001
  1.0480000e+000
  1.0470000e+000
  9.3100000e-001
  1.0340000e+000
  1.0850000e+000
  9.7100000e-001
  9.8900000e-001
  1.0860000e+000
  1.0050000e+000
  9.5000000e-001
  1.0790000e+000
  1.0620000e+000
  9.3900000e-001
  1.0640000e+000
  1.1580000e+000
  1.0370000e+000
  1.0650000e+000
  1.1650000e+000
  1.0640000e+000
  1.0050000e+000
  1.1310000e+000
  1.1200000e+000
  1.0000000e+000
  1.1070000e+000
  1.1720000e+000
  1.0140000e+000
  1.0440000e+000
  1.1670000e+000
  1.0600000e+000
  1.0010000e+000
  1.1590000e+000
  1.1540000e+000
  9.9900000e-001
  1.0950000e+000
  1.1550000e+000
  1.0160000e+000
  1.0660000e+000
  1.1960000e+000
  1.0850000e+000
  1.0180000e+000
  1.1740000e+000
  1.1540000e+000
  1.0150000e+000
  1.1280000e+000
  1.1970000e+000
  1.0360000e+000
  1.0430000e+000
  1.1690000e+000
  1.1020000e+000
  1.0380000e+000
  1.1740000e+000
  1.1500000e+000
  1.0230000e+000
  1.1510000e+000
  1.2280000e+000
  1.0560000e+000
  1.0980000e+000
  1.2630000e+000
  1.1450000e+000
  1.0610000e+000
  1.2240000e+000
  1.2070000e+000
  1.0330000e+000
  1.1590000e+000
  1.2720000e+000
  1.1000000e+000
  1.0950000e+000
  1.2150000e+000
  1.0940000e+000
  9.9900000e-001
  1.1050000e+000
  1.0790000e+000
  9.5000000e-001
  1.0760000e+000
  1.1610000e+000
  1.0100000e+000
  1.0310000e+000
  1.1500000e+000
  1.0740000e+000
  9.9200000e-001
  1.0950000e+000
  1.1020000e+000
  1.0110000e+000
  1.2200000e+000
  1.4690000e+000
  1.3900000e+000
  1.5800000e+000
  1.9180000e+000
  1.8190000e+000
  1.5300000e+000
  1.4240000e+000
  1.1860000e+000
  9.5700000e-001
  1.0130000e+000
  1.0390000e+000
  9.2000000e-001
  9.5300000e-001
  1.0440000e+000
  9.6600000e-001
  9.2500000e-001
  1.0410000e+000
  1.0250000e+000
  9.0800000e-001
  1.0000000e+000
  1.0760000e+000
  9.5700000e-001
  9.8100000e-001
  1.0890000e+000
  1.0200000e+000
  9.7500000e-001
  1.0990000e+000
  1.0950000e+000
  9.8900000e-001
  1.0810000e+000
  1.1400000e+000
  1.0140000e+000
  1.0510000e+000
  1.1830000e+000
  1.0990000e+000
  1.0380000e+000
  1.1700000e+000
  1.1390000e+000
  1.0320000e+000
  1.1960000e+000
  1.3090000e+000
  1.1140000e+000
  1.1460000e+000
  1.2950000e+000
  1.1780000e+000
  1.1120000e+000
  1.3170000e+000
  1.3200000e+000
  1.1230000e+000
  1.2560000e+000
  1.3290000e+000
  1.1330000e+000
  1.1720000e+000
  1.3070000e+000
  1.1400000e+000
  1.0410000e+000
  1.1600000e+000
  1.1320000e+000
  9.9500000e-001
  1.0710000e+000
  1.0840000e+000
  9.4100000e-001
  9.6800000e-001
  1.0510000e+000
  9.7200000e-001
  9.3400000e-001
  1.0370000e+000
  1.0110000e+000
  9.0100000e-001
  9.9600000e-001
  1.0430000e+000
  9.2200000e-001
  9.4900000e-001
  1.0530000e+000
  9.8900000e-001
  9.4100000e-001
  1.0440000e+000
  1.0520000e+000
  9.5700000e-001
  1.0610000e+000
  1.1120000e+000
  9.6700000e-001
  9.9100000e-001
  1.1040000e+000
  1.0390000e+000
  9.9100000e-001
  1.1250000e+000
  1.0940000e+000
  9.5300000e-001
  1.0590000e+000
  1.1550000e+000
  1.0250000e+000
  1.0550000e+000
  1.1600000e+000
  1.0430000e+000
  9.9600000e-001
  1.1220000e+000
  1.1070000e+000
  9.8100000e-001
  1.0880000e+000
  1.1390000e+000
  9.9900000e-001
  1.0330000e+000
  1.1440000e+000
  1.0720000e+000
  1.0220000e+000
  1.1550000e+000
  1.1230000e+000
  9.9100000e-001
  1.1040000e+000
  1.1670000e+000
  1.0200000e+000
  1.0520000e+000
  1.1870000e+000
  1.0860000e+000
  1.0080000e+000
  1.1330000e+000
  1.1270000e+000
  1.0000000e+000
  1.1200000e+000
  1.1730000e+000
  1.0160000e+000
  1.0530000e+000
  1.1860000e+000
  1.0900000e+000
  1.0320000e+000
  1.1910000e+000
  1.1830000e+000
  1.0290000e+000
  1.1510000e+000
  1.2200000e+000
  1.0530000e+000
  1.0900000e+000
  1.2330000e+000
  1.1140000e+000
  1.0500000e+000
  1.2250000e+000
  1.2190000e+000
  1.0410000e+000
  1.1640000e+000
  1.2280000e+000
  1.0590000e+000
  1.0850000e+000
  1.1870000e+000
  1.0470000e+000
  9.8700000e-001
  1.1250000e+000
  1.1120000e+000
  9.6900000e-001
  1.0600000e+000
  1.1350000e+000
  9.9400000e-001
  1.0280000e+000
  1.1550000e+000
  1.0750000e+000
  1.0320000e+000
  1.2110000e+000
  1.3430000e+000
  1.3410000e+000
  1.7430000e+000
  2.0300000e+000
  1.8700000e+000
  1.8100000e+000
  1.6880000e+000
  1.2340000e+000
  9.9900000e-001
  1.0650000e+000
  1.0270000e+000
  8.8500000e-001
  9.4400000e-001
  1.0000000e+000
  9.0500000e-001
  9.1500000e-001
  1.0310000e+000
  9.7200000e-001
  9.2700000e-001
  1.0420000e+000
  1.0160000e+000
  9.1200000e-001
  1.0140000e+000
  1.0570000e+000
  9.3600000e-001
  9.8500000e-001
  1.0950000e+000
  1.0010000e+000
  9.5300000e-001
  1.0800000e+000
  1.0840000e+000
  9.6800000e-001
  1.0810000e+000
  1.1670000e+000
  1.0270000e+000
  1.0550000e+000
  1.1630000e+000
  1.0670000e+000
  1.0220000e+000
  1.1860000e+000
  1.1960000e+000
  1.0510000e+000
  1.2010000e+000
  1.2960000e+000
  1.1140000e+000
  1.1540000e+000
  1.3170000e+000
  1.2150000e+000
  1.1410000e+000
  1.3280000e+000
  1.2630000e+000
  1.0860000e+000
  1.2510000e+000
  1.3030000e+000
  1.0750000e+000
  1.1300000e+000
  1.2530000e+000
  1.0990000e+000
  1.0100000e+000
  1.1070000e+000
  1.0660000e+000
  9.3800000e-001
  1.0290000e+000
  1.0650000e+000
  9.3500000e-001
  9.6700000e-001
  1.0420000e+000
  9.4000000e-001
  8.8500000e-001
  1.0110000e+000
  1.0200000e+000
  9.0800000e-001
  1.0080000e+000
  1.0660000e+000
  9.4400000e-001
  9.8600000e-001
  1.0850000e+000
  9.8100000e-001
  9.3400000e-001
  1.0800000e+000
  1.0720000e+000
  9.6200000e-001
  1.0600000e+000
  1.1130000e+000
  9.7700000e-001
  9.9100000e-001
  1.0890000e+000
  1.0240000e+000
  9.9100000e-001
  1.1280000e+000
  1.1030000e+000
  9.8300000e-001
  1.0810000e+000
  1.1370000e+000
  9.8300000e-001
  1.0380000e+000
  1.1680000e+000
  1.0520000e+000
  9.8000000e-001
  1.0930000e+000
  1.0970000e+000
  9.8700000e-001
  1.0860000e+000
  1.1410000e+000
  1.0000000e+000
  1.0520000e+000
  1.1770000e+000
  1.0610000e+000
  1.0050000e+000
  1.1330000e+000
  1.1230000e+000
  9.9000000e-001
  1.1080000e+000
  1.1630000e+000
  1.0000000e+000
  1.0410000e+000
  1.1740000e+000
  1.0670000e+000
  1.0180000e+000
  1.1650000e+000
  1.1360000e+000
  1.0110000e+000
  1.1360000e+000
  1.1830000e+000
  1.0160000e+000
  1.0670000e+000
  1.1830000e+000
  1.0650000e+000
  1.0080000e+000
  1.1690000e+000
  1.1600000e+000
  1.0320000e+000
  1.1280000e+000
  1.1530000e+000
  1.0250000e+000
  1.1020000e+000
  1.2900000e+000
  1.1330000e+000
  1.0560000e+000
  1.2520000e+000
  1.2540000e+000
  1.0920000e+000
  1.2350000e+000
  1.2700000e+000
  1.0640000e+000
  1.1120000e+000
  1.2370000e+000
  1.0720000e+000
  1.0010000e+000
  1.1030000e+000
  1.0920000e+000
  9.9000000e-001
  1.1030000e+000
  1.1420000e+000
  9.8600000e-001
  1.0470000e+000
  1.1690000e+000
  1.0360000e+000
  9.7700000e-001
  1.1450000e+000
  1.1720000e+000
  1.0940000e+000
  1.4540000e+000
  1.7700000e+000
  1.7820000e+000
  1.9620000e+000
  2.0840000e+000
  1.7110000e+000
  1.2680000e+000
  1.1550000e+000
  1.0360000e+000
  8.9700000e-001
  9.7600000e-001
  1.0090000e+000
  8.9200000e-001
  9.2500000e-001
  9.9900000e-001
  9.1500000e-001
  8.8200000e-001
  1.0010000e+000
  9.9400000e-001
  8.9800000e-001
  9.9000000e-001
  1.0380000e+000
  9.1900000e-001
  9.8300000e-001
  1.1030000e+000
  1.0080000e+000
  9.5300000e-001
  1.0500000e+000
  1.0430000e+000
  9.6800000e-001
  1.0940000e+000
  1.1390000e+000
  9.8200000e-001
  1.0430000e+000
  1.1690000e+000
  1.0590000e+000
  1.0410000e+000
  1.2050000e+000
  1.1810000e+000
  1.0570000e+000
  1.2150000e+000
  1.2750000e+000
  1.0880000e+000
  1.1690000e+000
  1.3310000e+000
  1.2000000e+000
  1.1700000e+000
  1.3650000e+000
  1.3090000e+000
  1.1180000e+000
  1.2630000e+000
  1.2760000e+000
  1.0330000e+000
  1.1200000e+000
  1.2840000e+000
  1.1300000e+000
  1.0410000e+000
  1.1640000e+000
  1.1110000e+000
  9.4300000e-001
  1.0130000e+000
  1.0390000e+000
  9.3300000e-001
  9.8700000e-001
  1.0520000e+000
  9.4800000e-001
  9.1200000e-001
  1.0090000e+000
  9.8200000e-001
  8.7700000e-001
  9.7100000e-001
  1.0140000e+000
  9.0200000e-001
  9.4500000e-001
  1.0150000e+000
  9.3900000e-001
  9.1900000e-001
  1.0530000e+000
  1.0380000e+000
  9.3800000e-001
  1.0510000e+000
  1.0890000e+000
  9.7200000e-001
  1.0320000e+000
  1.1140000e+000
  1.0050000e+000
  9.7600000e-001
  1.0880000e+000
  1.0520000e+000
  9.5300000e-001
  1.0590000e+000
  1.1350000e+000
  1.0010000e+000
  1.0320000e+000
  1.1560000e+000
  1.0570000e+000
  1.0290000e+000
  1.1560000e+000
  1.1050000e+000
  9.9100000e-001
  1.0890000e+000
  1.1200000e+000
  1.0040000e+000
  1.0670000e+000
  1.1670000e+000
  1.0310000e+000
  9.9700000e-001
  1.1360000e+000
  1.1220000e+000
  1.0220000e+000
  1.1370000e+000
  1.1740000e+000
  1.0160000e+000
  1.0780000e+000
  1.1590000e+000
  1.0420000e+000
  1.0230000e+000
  1.1630000e+000
  1.1200000e+000
  1.0050000e+000
  1.1260000e+000
  1.1650000e+000
  1.0280000e+000
  1.1070000e+000
  1.2350000e+000
  1.0840000e+000
  1.0440000e+000
  1.1760000e+000
  1.1260000e+000
  1.0090000e+000
  1.1330000e+000
  1.1930000e+000
  1.0460000e+000
  1.1030000e+000
  1.2420000e+000
  1.1070000e+000
  1.0520000e+000
  1.2280000e+000
  1.2000000e+000
  1.0720000e+000
  1.2260000e+000
  1.2700000e+000
  1.0970000e+000
  1.1550000e+000
  1.2630000e+000
  1.1610000e+000
  1.1210000e+000
  1.2570000e+000
  1.1580000e+000
  1.0160000e+000
  1.1330000e+000
  1.1760000e+000
  1.0090000e+000
  1.0560000e+000
  1.1700000e+000
  1.0520000e+000
  1.0100000e+000
  1.1220000e+000
  1.0940000e+000
  9.8200000e-001
  1.0760000e+000
  1.1200000e+000
  1.0050000e+000
  1.1130000e+000
  1.3380000e+000
  1.3370000e+000
  1.5110000e+000
  1.9170000e+000
  2.0250000e+000
  1.9060000e+000
  1.9060000e+000
  1.6280000e+000
  1.1260000e+000
  1.0370000e+000
  1.0470000e+000
  9.3300000e-001
  9.1100000e-001
  1.0220000e+000
  9.9000000e-001
  8.9400000e-001
  9.9000000e-001
  1.0150000e+000
  9.0200000e-001
  9.4000000e-001
  1.0220000e+000
  9.5800000e-001
  9.4900000e-001
  1.0690000e+000
  1.0520000e+000
  9.6700000e-001
  1.0650000e+000
  1.0890000e+000
  9.7700000e-001
  1.0520000e+000
  1.1610000e+000
  1.0440000e+000
  1.0220000e+000
  1.1650000e+000
  1.1250000e+000
  1.0140000e+000
  1.1410000e+000
  1.2150000e+000
  1.0600000e+000
  1.1590000e+000
  1.2980000e+000
  1.1590000e+000
  1.1370000e+000
  1.3230000e+000
  1.2850000e+000
  1.1530000e+000
  1.3500000e+000
  1.3890000e+000
  1.1840000e+000
  1.2620000e+000
  1.3870000e+000
  1.2250000e+000
  1.1680000e+000
  1.3350000e+000
  1.2870000e+000
  1.1260000e+000
  1.2580000e+000
  1.2570000e+000
  1.0520000e+000
  1.0920000e+000
  1.1540000e+000
  1.0340000e+000
  9.9200000e-001
  1.0690000e+000
  1.0160000e+000
  9.2000000e-001
  9.8900000e-001
  1.0230000e+000
  9.2400000e-001
  9.8200000e-001
  1.0500000e+000
  9.5900000e-001
  9.2900000e-001
  1.0230000e+000
  1.0130000e+000
  9.4100000e-001
  1.0440000e+000
  1.0690000e+000
  9.3900000e-001
  9.9400000e-001
  1.0930000e+000
  1.0130000e+000
  9.9600000e-001
  1.0990000e+000
  1.0660000e+000
  9.7100000e-001
  1.0740000e+000
  1.1090000e+000
  9.9100000e-001
  1.0550000e+000
  1.1300000e+000
  1.0190000e+000
  9.8900000e-001
  1.1270000e+000
  1.1020000e+000
  1.0050000e+000
  1.1200000e+000
  1.1400000e+000
  1.0010000e+000
  1.0750000e+000
  1.1640000e+000
  1.0600000e+000
  1.0430000e+000
  1.1420000e+000
  1.0830000e+000
  9.8100000e-001
  1.1020000e+000
  1.1410000e+000
  1.0010000e+000
  1.0610000e+000
  1.1460000e+000
  1.0200000e+000
  1.0040000e+000
  1.1400000e+000
  1.1200000e+000
  1.0180000e+000
  1.1360000e+000
  1.1420000e+000
  9.9700000e-001
  1.0690000e+000
  1.1640000e+000
  1.0550000e+000
  1.0290000e+000
  1.1670000e+000
  1.1250000e+000
  1.0280000e+000
  1.1510000e+000
  1.1810000e+000
  1.0190000e+000
  1.0810000e+000
  1.1890000e+000
  1.0920000e+000
  1.0650000e+000
  1.1910000e+000
  1.1610000e+000
  1.0600000e+000
  1.1810000e+000
  1.1760000e+000
  1.0160000e+000
  1.0880000e+000
  1.1680000e+000
  1.0360000e+000
  9.9500000e-001
  1.0990000e+000
  1.0520000e+000
  9.6200000e-001
  1.0720000e+000
  1.0940000e+000
  9.7200000e-001
  1.0180000e+000
  1.1030000e+000
  9.9900000e-001
  9.9700000e-001
  1.1110000e+000
  1.1210000e+000
  1.1280000e+000
  1.4820000e+000
  1.7210000e+000
  1.6610000e+000
  1.8380000e+000
  1.8680000e+000
  1.4460000e+000
  1.1350000e+000
  1.1040000e+000
  9.8900000e-001
  8.8000000e-001
  9.9100000e-001
  1.0310000e+000
  9.2000000e-001
  9.5500000e-001
  1.0080000e+000
  9.2400000e-001
  9.1900000e-001
  1.0360000e+000
  1.0050000e+000
  9.3300000e-001
  1.0420000e+000
  1.0700000e+000
  9.3600000e-001
  9.8900000e-001
  1.0860000e+000
  1.0080000e+000
  1.0010000e+000
  1.1160000e+000
  1.0600000e+000
  9.6700000e-001
  1.0920000e+000
  1.1350000e+000
  1.0190000e+000
  1.0890000e+000
  1.1630000e+000
  1.0590000e+000
  1.0590000e+000
  1.1970000e+000
  1.1600000e+000
  1.0560000e+000
  1.2090000e+000
  1.2660000e+000
  1.1050000e+000
  1.2110000e+000
  1.3400000e+000
  1.1930000e+000
  1.1760000e+000
  1.3500000e+000
  1.2810000e+000
  1.1350000e+000
  1.3190000e+000
  1.3500000e+000
  1.1230000e+000
  1.1870000e+000
  1.2750000e+000
  1.1220000e+000
  1.0940000e+000
  1.1880000e+000
  1.0990000e+000
  9.8300000e-001
  1.0560000e+000
  1.0600000e+000
  9.4300000e-001
  9.8600000e-001
  1.0360000e+000
  9.4000000e-001
  9.2600000e-001
  1.0200000e+000
  9.8300000e-001
  9.0700000e-001
  1.0100000e+000
  1.0430000e+000
  9.5200000e-001
  1.0080000e+000
  1.0690000e+000
  9.7700000e-001
  9.7500000e-001
  1.0850000e+000
  1.0510000e+000
  9.6700000e-001
  1.0570000e+000
  1.0850000e+000
  9.8100000e-001
  1.0420000e+000
  1.1120000e+000
  1.0230000e+000
  1.0380000e+000
  1.1640000e+000
  1.1000000e+000
  9.9000000e-001
  1.0980000e+000
  1.1400000e+000
  1.0200000e+000
  1.0720000e+000
  1.1510000e+000
  1.0550000e+000
  1.0410000e+000
  1.1490000e+000
  1.0880000e+000
  9.8600000e-001
  1.0670000e+000
  1.1090000e+000
  1.0220000e+000
  1.1030000e+000
  1.1840000e+000
  1.0590000e+000
  1.0420000e+000
  1.1460000e+000
  1.1080000e+000
  1.0230000e+000
  1.1180000e+000
  1.1270000e+000
  1.0330000e+000
  1.1140000e+000
  1.2030000e+000
  1.0750000e+000
  1.0510000e+000
  1.1540000e+000
  1.1120000e+000
  1.0320000e+000
  1.1830000e+000
  1.2190000e+000
  1.0590000e+000
  1.1050000e+000
  1.2050000e+000
  1.0980000e+000
  1.1040000e+000
  1.2610000e+000
  1.2140000e+000
  1.0970000e+000
  1.2340000e+000
  1.2530000e+000
  1.0940000e+000
  1.1700000e+000
  1.2450000e+000
  1.0990000e+000
  1.0750000e+000
  1.1950000e+000
  1.1360000e+000
  1.0150000e+000
  1.1020000e+000
  1.0930000e+000
  9.8200000e-001
  1.0590000e+000
  1.1440000e+000
  1.0470000e+000
  1.0410000e+000
  1.1280000e+000
  1.0640000e+000
  1.0030000e+000
  1.1480000e+000
  1.2290000e+000
  1.1730000e+000
  1.4780000e+000
  1.8180000e+000
  1.8600000e+000
  1.9580000e+000
  2.0180000e+000
  1.6350000e+000
  1.1650000e+000
  1.1080000e+000
  1.0480000e+000
  9.2400000e-001
  9.7200000e-001
  1.0190000e+000
  9.2900000e-001
  9.1900000e-001
  1.0030000e+000
  9.5300000e-001
  8.9800000e-001
  1.0050000e+000
  1.0270000e+000
  9.1900000e-001
  9.8600000e-001
  1.0610000e+000
  9.8300000e-001
  9.8300000e-001
  1.0790000e+000
  1.0230000e+000
  9.6300000e-001
  1.0780000e+000
  1.1000000e+000
  9.8200000e-001
  1.0440000e+000
  1.1460000e+000
  1.0600000e+000
  1.0530000e+000
  1.1550000e+000
  1.0920000e+000
  1.0220000e+000
  1.1840000e+000
  1.2340000e+000
  1.0850000e+000
  1.1840000e+000
  1.3010000e+000
  1.1510000e+000
  1.1210000e+000
  1.2840000e+000
  1.2540000e+000
  1.1640000e+000
  1.3150000e+000
  1.3290000e+000
  1.1410000e+000
  1.2450000e+000
  1.3590000e+000
  1.2000000e+000
  1.1610000e+000
  1.2790000e+000
  1.1610000e+000
  1.0390000e+000
  1.1070000e+000
  1.0940000e+000
  9.7300000e-001
  1.0220000e+000
  1.0750000e+000
  9.6600000e-001
  9.3600000e-001
  1.0150000e+000
  9.6600000e-001
  8.9800000e-001
  1.0000000e+000
  1.0150000e+000
  9.1100000e-001
  9.8000000e-001
  1.0440000e+000
  9.5300000e-001
  9.5800000e-001
  1.0610000e+000
  1.0190000e+000
  9.3400000e-001
  1.0270000e+000
  1.0600000e+000
  9.6100000e-001
  1.0290000e+000
  1.1050000e+000
  1.0030000e+000
  1.0030000e+000
  1.0980000e+000
  1.0430000e+000
  9.5900000e-001
  1.0690000e+000
  1.1130000e+000
  1.0010000e+000
  1.0550000e+000
  1.1000000e+000
  1.0240000e+000
  1.0250000e+000
  1.1310000e+000
  1.0970000e+000
  1.0180000e+000
  1.1230000e+000
  1.1390000e+000
  9.9900000e-001
  1.0590000e+000
  1.1420000e+000
  1.0430000e+000
  1.0240000e+000
  1.1300000e+000
  1.0950000e+000
  1.0180000e+000
  1.1420000e+000
  1.1580000e+000
  1.0140000e+000
  1.0980000e+000
  1.1860000e+000
  1.0610000e+000
  1.0610000e+000
  1.1670000e+000
  1.0990000e+000
  1.0110000e+000
  1.1200000e+000
  1.1350000e+000
  1.0140000e+000
  1.1170000e+000
  1.1950000e+000
  1.0560000e+000
  1.0380000e+000
  1.1510000e+000
  1.1230000e+000
  1.0480000e+000
  1.1980000e+000
  1.2020000e+000
  1.0460000e+000
  1.1210000e+000
  1.2140000e+000
  1.0850000e+000
  1.0830000e+000
  1.2140000e+000
  1.1350000e+000
  1.0700000e+000
  1.2510000e+000
  1.2490000e+000
  1.0670000e+000
  1.1650000e+000
  1.2420000e+000
  1.0660000e+000
  1.0500000e+000
  1.1590000e+000
  1.0720000e+000
  9.8000000e-001
  1.0930000e+000
  1.1090000e+000
  9.9500000e-001
  1.0720000e+000
  1.1350000e+000
  1.0160000e+000
  1.0000000e+000
  1.0850000e+000
  1.0530000e+000
  1.0100000e+000
  1.2010000e+000
  1.3420000e+000
  1.3010000e+000
  1.6360000e+000
  1.9730000e+000
  1.9600000e+000
  1.9210000e+000
  1.8120000e+000
  1.3800000e+000
  1.0370000e+000
  1.0530000e+000
  1.0080000e+000
  8.8500000e-001
  9.6100000e-001
  1.0160000e+000
  9.1600000e-001
  9.2000000e-001
  1.0230000e+000
  9.7100000e-001
  8.9200000e-001
  9.8900000e-001
  1.0190000e+000
  9.1900000e-001
  9.8600000e-001
  1.0510000e+000
  9.6100000e-001
  9.7500000e-001
  1.0920000e+000
  1.0500000e+000
  9.7600000e-001
  1.0850000e+000
  1.1030000e+000
  9.9000000e-001
  1.0640000e+000
  1.1460000e+000
  1.0480000e+000
  1.0550000e+000
  1.1960000e+000
  1.1370000e+000
  1.0420000e+000
  1.1760000e+000
  1.1810000e+000
  1.0550000e+000
  1.2010000e+000
  1.3320000e+000
  1.1680000e+000
  1.1350000e+000
  1.3350000e+000
  1.2990000e+000
  1.1780000e+000
  1.3180000e+000
  1.3270000e+000
  1.1550000e+000
  1.2670000e+000
  1.3460000e+000
  1.1390000e+000
  1.1140000e+000
  1.2420000e+000
  1.1300000e+000
  1.0140000e+000
  1.1050000e+000
  1.0950000e+000
  9.5500000e-001
  1.0000000e+000
  1.0620000e+000
  9.4900000e-001
  9.3600000e-001
  1.0220000e+000
  9.6300000e-001
  8.8700000e-001
  9.9400000e-001
  1.0000000e+000
  8.9100000e-001
  9.7100000e-001
  1.0470000e+000
  9.4700000e-001
  9.5400000e-001
  1.0600000e+000
  1.0110000e+000
  9.3500000e-001
  1.0530000e+000
  1.0740000e+000
  9.6700000e-001
  1.0460000e+000
  1.1000000e+000
  9.8000000e-001
  9.8900000e-001
  1.0990000e+000
  1.0370000e+000
  9.6100000e-001
  1.0810000e+000
  1.0980000e+000
  9.7300000e-001
  1.0610000e+000
  1.1280000e+000
  1.0040000e+000
  9.9400000e-001
  1.1030000e+000
  1.0570000e+000
  9.8500000e-001
  1.1110000e+000
  1.1170000e+000
  1.0000000e+000
  1.0740000e+000
  1.1550000e+000
  1.0230000e+000
  1.0240000e+000
  1.1460000e+000
  1.0750000e+000
  9.8500000e-001
  1.1050000e+000
  1.1110000e+000
  9.8600000e-001
  1.0700000e+000
  1.1580000e+000
  1.0370000e+000
  1.0290000e+000
  1.1500000e+000
  1.0800000e+000
  1.0040000e+000
  1.1590000e+000
  1.1690000e+000
  1.0250000e+000
  1.0980000e+000
  1.1810000e+000
  1.0320000e+000
  1.0440000e+000
  1.2120000e+000
  1.1280000e+000
  1.0360000e+000
  1.1350000e+000
  1.1560000e+000
  1.0480000e+000
  1.1360000e+000
  1.2200000e+000
  1.0860000e+000
  1.0920000e+000
  1.2260000e+000
  1.1600000e+000
  1.0890000e+000
  1.2240000e+000
  1.2310000e+000
  1.0690000e+000
  1.1410000e+000
  1.1920000e+000
  1.0240000e+000
  1.0550000e+000
  1.1980000e+000
  1.1040000e+000
  1.0000000e+000
  1.1080000e+000
  1.1180000e+000
  9.9100000e-001
  1.0620000e+000
  1.1320000e+000
  1.0150000e+000
  1.0270000e+000
  1.1440000e+000
  1.1160000e+000
  1.0710000e+000
  1.3480000e+000
  1.5550000e+000
  1.5320000e+000
  1.8370000e+000
  2.0370000e+000
  1.7380000e+000
  1.4670000e+000
  1.3290000e+000
  1.0560000e+000
  9.2400000e-001
  1.0140000e+000
  1.0250000e+000
  9.1700000e-001
  9.9700000e-001
  1.0480000e+000
  9.4100000e-001
  9.3100000e-001
  1.0310000e+000
  1.0110000e+000
  9.4900000e-001
  1.0670000e+000
  1.0890000e+000
  9.6200000e-001
  1.0190000e+000
  1.0920000e+000
  9.9700000e-001
  1.0150000e+000
  1.1320000e+000
  1.0690000e+000
  9.9500000e-001
  1.1170000e+000
  1.1390000e+000
  9.9500000e-001
  1.0840000e+000
  1.1650000e+000
  1.0320000e+000
  1.0480000e+000
  1.1870000e+000
  1.1350000e+000
  1.0590000e+000
  1.2230000e+000
  1.2340000e+000
  1.0550000e+000
  1.1740000e+000
  1.2750000e+000
  1.1270000e+000
  1.1580000e+000
  1.2980000e+000
  1.2060000e+000
  1.1250000e+000
  1.3030000e+000
  1.2940000e+000
  1.0920000e+000
  1.1870000e+000
  1.2650000e+000
  1.0970000e+000
  1.0840000e+000
  1.1840000e+000
  1.0810000e+000
  9.7500000e-001
  1.0430000e+000
  1.0390000e+000
  9.2000000e-001
  9.9100000e-001
  1.0310000e+000
  9.0200000e-001
  8.9900000e-001
  9.8300000e-001
  9.3000000e-001
  8.7000000e-001
  9.8700000e-001
  9.9400000e-001
  8.7300000e-001
  9.5300000e-001
  1.0200000e+000
  9.1300000e-001
  9.2200000e-001
  1.0280000e+000
  9.7500000e-001
  9.1000000e-001
  1.0140000e+000
  1.0310000e+000
  9.3500000e-001
  1.0160000e+000
  1.0780000e+000
  9.6200000e-001
  9.4700000e-001
  1.0290000e+000
  9.8900000e-001
  9.4700000e-001
  1.0760000e+000
  1.0740000e+000
  9.4700000e-001
  1.0390000e+000
  1.1250000e+000
  9.9700000e-001
  9.9100000e-001
  1.1120000e+000
  1.0420000e+000
  9.8500000e-001
  1.1000000e+000
  1.0840000e+000
  9.4700000e-001
  1.0310000e+000
  1.1400000e+000
  1.0150000e+000
  9.9500000e-001
  1.1080000e+000
  1.0470000e+000
  9.7600000e-001
  1.0930000e+000
  1.1170000e+000
  9.8600000e-001
  1.0850000e+000
  1.1720000e+000
  1.0410000e+000
  1.0470000e+000
  1.1740000e+000
  1.1020000e+000
  1.0150000e+000
  1.1630000e+000
  1.1610000e+000
  9.9900000e-001
  1.1030000e+000
  1.2160000e+000
  1.0700000e+000
  1.0790000e+000
  1.2300000e+000
  1.1180000e+000
  1.0280000e+000
  1.1970000e+000
  1.2290000e+000
  1.0560000e+000
  1.1590000e+000
  1.2560000e+000
  1.0690000e+000
  1.0700000e+000
  1.2490000e+000
  1.1810000e+000
  1.0690000e+000
  1.1890000e+000
  1.1600000e+000
  1.0040000e+000
  1.0970000e+000
  1.1790000e+000
  1.0330000e+000
  1.0250000e+000
  1.1220000e+000
  1.0470000e+000
  9.8000000e-001
  1.0970000e+000
  1.1080000e+000
  9.7500000e-001
  1.0470000e+000
  1.1700000e+000
  1.1040000e+000
  1.2870000e+000
  1.6260000e+000
  1.7170000e+000
  1.7750000e+000
  2.0510000e+000
  1.9720000e+000
  1.4910000e+000
  1.3010000e+000
  1.1630000e+000
  9.4000000e-001
  9.3400000e-001
  1.0640000e+000
  1.0010000e+000
  9.0600000e-001
  1.0010000e+000
  1.0130000e+000
  9.1300000e-001
  9.9000000e-001
  1.0670000e+000
  9.6400000e-001
  9.8600000e-001
  1.0980000e+000
  1.0230000e+000
  9.4500000e-001
  1.0600000e+000
  1.0810000e+000
  9.7200000e-001
  1.0460000e+000
  1.1270000e+000
  1.0310000e+000
  1.0640000e+000
  1.1810000e+000
  1.0900000e+000
  1.0160000e+000
  1.1680000e+000
  1.1890000e+000
  1.0340000e+000
  1.1250000e+000
  1.2580000e+000
  1.1310000e+000
  1.1550000e+000
  1.2900000e+000
  1.2000000e+000
  1.1310000e+000
  1.3140000e+000
  1.3320000e+000
  1.1230000e+000
  1.2800000e+000
  1.4250000e+000
  1.2170000e+000
  1.2120000e+000
  1.3570000e+000
  1.2560000e+000
  1.1500000e+000
  1.3050000e+000
  1.2340000e+000
  1.0420000e+000
  1.1200000e+000
  1.1640000e+000
  9.9700000e-001
  1.0110000e+000
  1.1220000e+000
  1.0090000e+000
  9.1600000e-001
  1.0180000e+000
  1.0200000e+000
  9.0600000e-001
  9.7300000e-001
  1.0430000e+000
  9.3500000e-001
  9.4100000e-001
  1.0410000e+000
  9.7800000e-001
  9.2100000e-001
  1.0390000e+000
  1.0560000e+000
  9.5500000e-001
  1.0430000e+000
  1.1140000e+000
  9.8000000e-001
  9.7800000e-001
  1.0970000e+000
  1.0430000e+000
  9.8600000e-001
  1.1040000e+000
  1.0990000e+000
  9.7800000e-001
  1.0620000e+000
  1.1050000e+000
  9.7200000e-001
  1.0100000e+000
  1.1310000e+000
  1.0610000e+000
  9.9200000e-001
  1.1270000e+000
  1.1370000e+000
  1.0130000e+000
  1.0890000e+000
  1.1410000e+000
  9.9100000e-001
  1.0190000e+000
  1.1740000e+000
  1.0830000e+000
  9.9500000e-001
  1.1280000e+000
  1.1550000e+000
  1.0180000e+000
  1.1070000e+000
  1.1590000e+000
  1.0180000e+000
  1.0430000e+000
  1.1820000e+000
  1.0920000e+000
  1.0060000e+000
  1.0930000e+000
  1.0990000e+000
  1.0080000e+000
  1.1090000e+000
  1.1810000e+000
  1.0390000e+000
  1.0610000e+000
  1.1860000e+000
  1.0980000e+000
  1.0090000e+000
  1.1360000e+000
  1.1540000e+000
  1.0060000e+000
  1.0850000e+000
  1.1650000e+000
  1.0340000e+000
  1.0420000e+000
  1.2110000e+000
  1.1390000e+000
  1.0430000e+000
  1.1580000e+000
  1.1610000e+000
  1.0370000e+000
  1.1360000e+000
  1.2290000e+000
  1.0800000e+000
  1.1140000e+000
  1.2810000e+000
  1.1980000e+000
  1.0890000e+000
  1.2390000e+000
  1.2570000e+000
  1.0670000e+000
  1.1400000e+000
  1.1910000e+000
  1.0320000e+000
  1.0330000e+000
  1.1540000e+000
  1.0700000e+000
  9.8600000e-001
  1.1020000e+000
  1.1050000e+000
  9.6200000e-001
  1.0480000e+000
  1.1270000e+000
  9.9700000e-001
  9.9600000e-001
  1.0920000e+000
  1.0500000e+000
  1.0430000e+000
  1.3230000e+000
  1.5050000e+000
  1.5270000e+000
  1.9020000e+000
  2.1380000e+000
  1.8980000e+000
  1.6780000e+000
  1.4830000e+000
  1.1170000e+000
  9.5300000e-001
  1.0250000e+000
  9.9600000e-001
  8.6800000e-001
  9.6200000e-001
  1.0180000e+000
  9.0100000e-001
  9.1500000e-001
  1.0140000e+000
  9.4900000e-001
  8.9700000e-001
  1.0310000e+000
  1.0190000e+000
  8.9700000e-001
  9.9400000e-001
  1.0690000e+000
  9.7100000e-001
  9.9700000e-001
  1.1230000e+000
  1.0510000e+000
  9.8000000e-001
  1.1050000e+000
  1.1180000e+000
  9.9400000e-001
  1.0860000e+000
  1.1590000e+000
  1.0040000e+000
  1.0370000e+000
  1.2050000e+000
  1.1310000e+000
  1.0340000e+000
  1.2090000e+000
  1.2400000e+000
  1.0800000e+000
  1.2060000e+000
  1.3120000e+000
  1.1460000e+000
  1.1720000e+000
  1.3360000e+000
  1.2370000e+000
  1.1460000e+000
  1.3240000e+000
  1.2840000e+000
  1.0990000e+000
  1.2070000e+000
  1.2900000e+000
  1.1040000e+000
  1.0980000e+000
  1.1760000e+000
  1.0860000e+000
  1.0160000e+000
  1.1220000e+000
  1.0790000e+000
  9.1000000e-001
  9.8300000e-001
  1.0380000e+000
  9.3400000e-001
  9.5000000e-001
  1.0410000e+000
  9.5800000e-001
  8.9100000e-001
  1.0110000e+000
  1.0130000e+000
  9.0200000e-001
  9.8900000e-001
  1.0550000e+000
  9.4800000e-001
  9.4400000e-001
  1.0470000e+000
  9.9500000e-001
  9.4000000e-001
  1.0440000e+000
  1.0460000e+000
  9.4700000e-001
  1.0390000e+000
  1.1090000e+000
  9.8700000e-001
  1.0030000e+000
  1.1080000e+000
  1.0420000e+000
  9.7800000e-001
  1.1040000e+000
  1.1020000e+000
  9.7600000e-001
  1.0720000e+000
  1.1310000e+000
  9.8300000e-001
  1.0180000e+000
  1.1450000e+000
  1.0670000e+000
  1.0140000e+000
  1.1320000e+000
  1.1040000e+000
  9.9700000e-001
  1.1170000e+000
  1.1760000e+000
  1.0040000e+000
  1.0250000e+000
  1.1400000e+000
  1.0620000e+000
  9.9200000e-001
  1.1050000e+000
  1.1350000e+000
  1.0040000e+000
  1.1050000e+000
  1.1720000e+000
  1.0240000e+000
  1.0520000e+000
  1.1980000e+000
  1.1020000e+000
  1.0200000e+000
  1.1530000e+000
  1.1270000e+000
  9.9000000e-001
  1.1020000e+000
  1.2000000e+000
  1.0520000e+000
  1.0650000e+000
  1.1630000e+000
  1.0860000e+000
  1.0310000e+000
  1.1600000e+000
  1.1580000e+000
  1.0110000e+000
  1.1160000e+000
  1.1910000e+000
  1.0410000e+000
  1.0550000e+000
  1.2210000e+000
  1.1400000e+000
  1.0500000e+000
  1.1650000e+000
  1.1590000e+000
  1.0360000e+000
  1.1630000e+000
  1.2390000e+000
  1.0840000e+000
  1.1180000e+000
  1.2660000e+000
  1.1700000e+000
  1.0850000e+000
  1.2300000e+000
  1.2340000e+000
  1.0530000e+000
  1.1360000e+000
  1.1830000e+000
  9.9900000e-001
  1.0330000e+000
  1.1690000e+000
  1.0640000e+000
  9.8100000e-001
  1.1200000e+000
  1.1260000e+000
  9.9400000e-001
  1.0650000e+000
  1.0950000e+000
  9.9700000e-001
  1.0460000e+000
  1.1970000e+000
  1.1500000e+000
  1.1840000e+000
  1.5860000e+000
  1.8320000e+000
  1.8180000e+000
  2.0280000e+000
  1.9580000e+000
  1.4070000e+000
  1.1230000e+000
  1.1220000e+000
  9.9100000e-001
  9.1200000e-001
  1.0050000e+000
  9.9200000e-001
  8.6600000e-001
  9.2600000e-001
  9.9500000e-001
  9.1600000e-001
  9.4900000e-001
  1.0430000e+000
  9.8100000e-001
  9.3100000e-001
  1.0670000e+000
  1.0660000e+000
  9.5300000e-001
  1.0370000e+000
  1.0920000e+000
  9.6700000e-001
  9.9000000e-001
  1.1080000e+000
  1.0480000e+000
  9.8200000e-001
  1.1260000e+000
  1.1220000e+000
  9.9500000e-001
  1.1080000e+000
  1.1880000e+000
  1.0470000e+000
  1.0990000e+000
  1.2290000e+000
  1.1090000e+000
  1.0480000e+000
  1.2800000e+000
  1.3200000e+000
  1.1020000e+000
  1.2470000e+000
  1.3420000e+000
  1.1280000e+000
  1.1810000e+000
  1.3780000e+000
  1.2660000e+000
  1.1590000e+000
  1.3240000e+000
  1.3040000e+000
  1.1050000e+000
  1.2090000e+000
  1.2580000e+000
  1.0670000e+000
  1.1020000e+000
  1.2120000e+000
  1.0790000e+000
  9.9600000e-001
  1.0860000e+000
  1.0390000e+000
  9.2200000e-001
  1.0130000e+000
  1.0330000e+000
  9.1700000e-001
  9.3900000e-001
  1.0200000e+000
  9.5300000e-001
  9.1000000e-001
  1.0280000e+000
  1.0180000e+000
  9.0800000e-001
  1.0110000e+000
  1.0570000e+000
  9.2900000e-001
  9.4000000e-001
  1.0470000e+000
  1.0090000e+000
  9.7300000e-001
  1.0690000e+000
  1.0510000e+000
  9.4700000e-001
  1.0650000e+000
  1.1250000e+000
  9.9600000e-001
  1.0190000e+000
  1.1360000e+000
  1.0370000e+000
  9.4300000e-001
  1.1080000e+000
  1.1210000e+000
  9.8000000e-001
  1.0600000e+000
  1.1440000e+000
  1.0140000e+000
  1.0430000e+000
  1.1650000e+000
  1.0660000e+000
  9.9700000e-001
  1.1300000e+000
  1.0990000e+000
  9.5800000e-001
  1.0690000e+000
  1.1360000e+000
  1.0140000e+000
  1.0560000e+000
  1.1810000e+000
  1.0720000e+000
  1.0080000e+000
  1.1140000e+000
  1.1050000e+000
  9.9000000e-001
  1.1020000e+000
  1.1740000e+000
  1.0180000e+000
  1.0310000e+000
  1.1270000e+000
  1.0560000e+000
  1.0090000e+000
  1.1550000e+000
  1.1460000e+000
  1.0040000e+000
  1.1130000e+000
  1.2030000e+000
  1.0480000e+000
  1.0810000e+000
  1.2090000e+000
  1.1080000e+000
  1.0370000e+000
  1.1770000e+000
  1.1700000e+000
  1.0310000e+000
  1.1420000e+000
  1.2070000e+000
  1.0590000e+000
  1.1080000e+000
  1.2790000e+000
  1.1550000e+000
  1.0690000e+000
  1.2190000e+000
  1.1920000e+000
  1.0340000e+000
  1.1170000e+000
  1.1720000e+000
  1.0000000e+000
  1.0140000e+000
  1.1260000e+000
  1.0380000e+000
  9.7200000e-001
  1.1210000e+000
  1.1090000e+000
  9.7600000e-001
  1.0750000e+000
  1.1170000e+000
  9.8000000e-001
  1.0190000e+000
  1.1600000e+000
  1.1230000e+000
  1.1490000e+000
  1.5370000e+000
  1.7380000e+000
  1.6690000e+000
  1.8570000e+000
  1.8240000e+000
  1.3570000e+000
  1.1360000e+000
  1.0990000e+000
  9.7300000e-001
  9.2500000e-001
  1.0290000e+000
  1.0000000e+000
  8.8900000e-001
  9.9000000e-001
  1.0370000e+000
  9.2400000e-001
  9.4800000e-001
  1.0200000e+000
  9.5400000e-001
  9.3600000e-001
  1.0620000e+000
  1.0410000e+000
  9.3300000e-001
  1.0560000e+000
  1.1230000e+000
  9.8700000e-001
  1.0250000e+000
  1.1480000e+000
  1.0510000e+000
  9.9000000e-001
  1.1350000e+000
  1.1270000e+000
  1.0060000e+000
  1.1180000e+000
  1.1720000e+000
  1.0220000e+000
  1.0760000e+000
  1.2260000e+000
  1.1390000e+000
  1.0780000e+000
  1.2450000e+000
  1.2350000e+000
  1.0790000e+000
  1.2440000e+000
  1.3200000e+000
  1.1230000e+000
  1.1830000e+000
  1.3640000e+000
  1.2300000e+000
  1.1400000e+000
  1.3260000e+000
  1.3010000e+000
  1.0850000e+000
  1.1960000e+000
  1.2590000e+000
  1.0640000e+000
  1.0750000e+000
  1.1680000e+000
  1.0410000e+000
  9.6400000e-001
  1.0520000e+000
  1.0240000e+000
  9.1500000e-001
  1.0000000e+000
  1.0320000e+000
  8.8900000e-001
  9.1600000e-001
  1.0360000e+000
  9.7200000e-001
  9.2500000e-001
  1.0320000e+000
  1.0130000e+000
  9.0600000e-001
  9.9100000e-001
  1.0280000e+000
  9.3100000e-001
  9.9100000e-001
  1.0940000e+000
  9.9400000e-001
  9.4900000e-001
  1.0700000e+000
  1.0460000e+000
  9.4500000e-001
  1.0550000e+000
  1.1330000e+000
  9.9600000e-001
  1.0180000e+000
  1.1080000e+000
  1.0230000e+000
  9.9400000e-001
  1.1330000e+000
  1.1200000e+000
  9.7800000e-001
  1.0830000e+000
  1.1400000e+000
  9.9100000e-001
  1.0160000e+000
  1.1130000e+000
  1.0440000e+000
  1.0270000e+000
  1.1610000e+000
  1.1230000e+000
  9.6900000e-001
  1.0760000e+000
  1.1580000e+000
  1.0110000e+000
  1.0370000e+000
  1.1450000e+000
  1.0500000e+000
  1.0000000e+000
  1.1480000e+000
  1.1440000e+000
  1.0200000e+000
  1.1390000e+000
  1.1950000e+000
  1.0150000e+000
  1.0560000e+000
  1.1860000e+000
  1.0800000e+000
  1.0050000e+000
  1.1500000e+000
  1.1550000e+000
  1.0200000e+000
  1.1130000e+000
  1.1790000e+000
  1.0200000e+000
  1.0690000e+000
  1.2140000e+000
  1.0920000e+000
  1.0130000e+000
  1.1720000e+000
  1.1490000e+000
  1.0060000e+000
  1.1210000e+000
  1.2010000e+000
  1.0440000e+000
  1.0810000e+000
  1.2400000e+000
  1.1310000e+000
  1.0600000e+000
  1.2200000e+000
  1.1760000e+000
  1.0040000e+000
  1.1500000e+000
  1.2610000e+000
  1.0660000e+000
  1.1330000e+000
  1.3140000e+000
  1.1790000e+000
  1.0850000e+000
  1.2230000e+000
  1.2050000e+000
  1.0470000e+000
  1.1600000e+000
  1.1960000e+000
  1.0130000e+000
  1.0250000e+000
  1.1280000e+000
  1.0530000e+000
  9.9500000e-001
  1.1230000e+000
  1.1030000e+000
  9.7200000e-001
  1.0850000e+000
  1.1250000e+000
  9.9100000e-001
  1.0700000e+000
  1.2750000e+000
  1.2700000e+000
  1.3310000e+000
  1.7170000e+000
  1.9020000e+000
  1.8590000e+000
  1.9990000e+000
  1.8410000e+000
  1.2440000e+000
  1.0760000e+000
  1.1090000e+000
  9.8100000e-001
  9.0600000e-001
  9.9700000e-001
  9.7600000e-001
  8.6800000e-001
  9.6900000e-001
  1.0110000e+000
  8.8300000e-001
  9.1700000e-001
  1.0250000e+000
  9.6300000e-001
  9.3600000e-001
  1.0650000e+000
  1.0380000e+000
  9.2400000e-001
  1.0360000e+000
  1.0920000e+000
  9.6200000e-001
  1.0130000e+000
  1.1410000e+000
  1.0530000e+000
  9.9400000e-001
  1.0850000e+000
  1.0970000e+000
  1.0080000e+000
  1.1450000e+000
  1.2050000e+000
  1.0290000e+000
  1.0810000e+000
  1.2230000e+000
  1.1310000e+000
  1.0660000e+000
  1.2290000e+000
  1.2070000e+000
  1.0760000e+000
  1.2280000e+000
  1.3260000e+000
  1.1530000e+000
  1.2160000e+000
  1.3890000e+000
  1.2510000e+000
  1.1400000e+000
  1.3100000e+000
  1.2430000e+000
  1.0590000e+000
  1.2140000e+000
  1.2770000e+000
  1.0560000e+000
  1.0690000e+000
  1.1670000e+000
  1.0470000e+000
  9.6900000e-001
  1.0590000e+000
  1.0160000e+000
  9.1200000e-001
  1.0100000e+000
  1.0530000e+000
  9.2700000e-001
  9.4700000e-001
  1.0060000e+000
  9.1900000e-001
  9.0200000e-001
  1.0470000e+000
  1.0310000e+000
  9.2100000e-001
  1.0090000e+000
  1.0430000e+000
  9.2600000e-001
  9.7100000e-001
  1.0810000e+000
  1.0080000e+000
  9.6100000e-001
  1.0660000e+000
  1.0430000e+000
  9.4900000e-001
  1.0590000e+000
  1.1200000e+000
  9.8900000e-001
  1.0280000e+000
  1.1280000e+000
  1.0390000e+000
  9.8700000e-001
  1.0990000e+000
  1.0800000e+000
  9.8500000e-001
  1.1000000e+000
  1.1580000e+000
  1.0130000e+000
  1.0230000e+000
  1.1550000e+000
  1.0740000e+000
  1.0100000e+000
  1.1440000e+000
  1.1320000e+000
  9.9900000e-001
  1.1050000e+000
  1.1640000e+000
  1.0040000e+000
  1.0390000e+000
  1.1730000e+000
  1.0570000e+000
  9.9400000e-001
  1.1540000e+000
  1.1180000e+000
  9.9700000e-001
  1.1220000e+000
  1.1780000e+000
  1.0200000e+000
  1.0570000e+000
  1.1920000e+000
  1.0700000e+000
  1.0090000e+000
  1.1680000e+000
  1.1350000e+000
  1.0050000e+000
  1.1170000e+000
  1.2020000e+000
  1.0390000e+000
  1.0690000e+000
  1.2070000e+000
  1.1000000e+000
  1.0370000e+000
  1.1830000e+000
  1.1450000e+000
  1.0100000e+000
  1.1390000e+000
  1.2070000e+000
  1.0380000e+000
  1.0760000e+000
  1.1890000e+000
  1.0710000e+000
  1.0150000e+000
  1.1810000e+000
  1.1550000e+000
  1.0160000e+000
  1.1740000e+000
  1.2710000e+000
  1.0690000e+000
  1.1040000e+000
  1.2570000e+000
  1.1210000e+000
  1.0570000e+000
  1.2240000e+000
  1.2020000e+000
  1.0480000e+000
  1.1830000e+000
  1.2420000e+000
  1.0740000e+000
  1.1450000e+000
  1.2750000e+000
  1.1250000e+000
  1.0470000e+000
  1.1760000e+000
  1.1360000e+000
  9.8700000e-001
  1.0810000e+000
  1.1300000e+000
  9.8300000e-001
  1.0240000e+000
  1.1140000e+000
  1.0180000e+000
  9.8000000e-001
  1.0940000e+000
  1.0970000e+000
  1.0060000e+000
  1.2200000e+000
  1.4500000e+000
  1.4550000e+000
  1.7440000e+000
  2.0900000e+000
  1.9670000e+000
  1.7170000e+000
  1.6210000e+000
  1.2680000e+000
  9.6600000e-001
  1.0140000e+000
  1.0250000e+000
  8.8400000e-001
  9.3000000e-001
  1.0090000e+000
  9.2200000e-001
  8.9300000e-001
  1.0190000e+000
  9.9900000e-001
  8.9200000e-001
  9.9700000e-001
  1.0500000e+000
  9.3000000e-001
  9.6900000e-001
  1.0880000e+000
  1.0080000e+000
  9.5900000e-001
  1.0780000e+000
  1.0650000e+000
  9.5300000e-001
  1.0740000e+000
  1.1350000e+000
  9.8300000e-001
  1.0360000e+000
  1.1640000e+000
  1.0530000e+000
  1.0110000e+000
  1.1890000e+000
  1.1910000e+000
  1.0410000e+000
  1.1760000e+000
  1.2620000e+000
  1.0760000e+000
  1.1500000e+000
  1.3100000e+000
  1.1760000e+000
  1.1040000e+000
  1.3320000e+000
  1.3170000e+000
  1.1210000e+000
  1.2850000e+000
  1.3480000e+000
  1.1220000e+000
  1.1690000e+000
  1.3510000e+000
  1.2000000e+000
  1.0930000e+000
  1.2030000e+000
  1.1250000e+000
  9.7700000e-001
  1.0850000e+000
  1.1220000e+000
  9.5200000e-001
  9.6300000e-001
  1.0360000e+000
  9.5200000e-001
  8.9400000e-001
  9.8900000e-001
  9.9000000e-001
  8.9300000e-001
  9.8500000e-001
  1.0080000e+000
  8.8000000e-001
  9.5200000e-001
  1.0640000e+000
  9.6700000e-001
  9.3300000e-001
  1.0550000e+000
  1.0310000e+000
  9.1700000e-001
  1.0130000e+000
  1.0530000e+000
  9.4000000e-001
  9.9000000e-001
  1.1020000e+000
  1.0100000e+000
  9.6400000e-001
  1.0790000e+000
  1.0880000e+000
  9.8100000e-001
  1.0850000e+000
  1.1270000e+000
  9.9500000e-001
  1.0420000e+000
  1.1460000e+000
  1.0440000e+000
  1.0080000e+000
  1.1270000e+000
  1.0900000e+000
  9.7600000e-001
  1.0710000e+000
  1.0990000e+000
  9.6700000e-001
  1.0220000e+000
  1.1640000e+000
  1.0600000e+000
  1.0110000e+000
  1.1440000e+000
  1.1120000e+000
  9.9000000e-001
  1.0920000e+000
  1.1310000e+000
  1.0080000e+000
  1.0780000e+000
  1.1760000e+000
  1.0370000e+000
  1.0060000e+000
  1.1730000e+000
  1.1490000e+000
  1.0140000e+000
  1.1280000e+000
  1.1580000e+000
  1.0110000e+000
  1.0650000e+000
  1.1830000e+000
  1.0930000e+000
  1.0510000e+000
  1.1980000e+000
  1.1260000e+000
  9.8600000e-001
  1.1250000e+000
  1.2100000e+000
  1.0380000e+000
  1.0860000e+000
  1.2230000e+000
  1.0880000e+000
  1.0240000e+000
  1.1690000e+000
  1.1440000e+000
  1.0060000e+000
  1.1500000e+000
  1.2170000e+000
  1.0360000e+000
  1.0740000e+000
  1.2000000e+000
  1.0970000e+000
  1.0500000e+000
  1.2060000e+000
  1.1760000e+000
  1.0250000e+000
  1.1700000e+000
  1.2440000e+000
  1.0600000e+000
  1.1090000e+000
  1.2530000e+000
  1.1360000e+000
  1.0940000e+000
  1.2470000e+000
  1.1870000e+000
  1.0550000e+000
  1.2280000e+000
  1.2890000e+000
  1.0810000e+000
  1.1160000e+000
  1.2330000e+000
  1.0860000e+000
  1.0280000e+000
  1.1490000e+000
  1.0980000e+000
  9.8600000e-001
  1.1080000e+000
  1.1450000e+000
  9.7600000e-001
  1.0240000e+000
  1.1590000e+000
  1.0480000e+000
  9.9700000e-001
  1.0990000e+000
  1.0550000e+000
  9.7500000e-001
  1.1780000e+000
  1.4310000e+000
  1.4410000e+000
  1.7730000e+000
  2.1040000e+000
  1.9240000e+000
  1.6810000e+000
  1.6160000e+000
  1.2710000e+000
  9.6300000e-001
  9.9400000e-001
  1.0180000e+000
  9.0300000e-001
  9.4100000e-001
  1.0110000e+000
  9.2500000e-001
  8.9200000e-001
  1.0150000e+000
  9.9500000e-001
  8.8500000e-001
  9.9100000e-001
  1.0500000e+000
  9.3300000e-001
  9.8700000e-001
  1.0670000e+000
  9.8700000e-001
  9.6700000e-001
  1.1020000e+000
  1.0520000e+000
  9.4900000e-001
  1.0930000e+000
  1.1650000e+000
  1.0100000e+000
  1.0500000e+000
  1.1500000e+000
  1.0640000e+000
  1.0390000e+000
  1.1860000e+000
  1.1330000e+000
  1.0220000e+000
  1.1820000e+000
  1.2630000e+000
  1.0750000e+000
  1.1400000e+000
  1.2900000e+000
  1.1550000e+000
  1.1450000e+000
  1.3480000e+000
  1.2910000e+000
  1.1030000e+000
  1.2860000e+000
  1.3630000e+000
  1.1400000e+000
  1.1970000e+000
  1.3150000e+000
  1.1580000e+000
  1.0920000e+000
  1.2240000e+000
  1.1490000e+000
  1.0180000e+000
  1.1320000e+000
  1.1220000e+000
  9.4900000e-001
  9.7800000e-001
  1.0690000e+000
  9.5500000e-001
  9.2500000e-001
  1.0150000e+000
  9.7600000e-001
  8.8900000e-001
  1.0040000e+000
  1.0320000e+000
  8.8400000e-001
  9.3500000e-001
  1.0530000e+000
  9.7600000e-001
  9.4100000e-001
  1.0460000e+000
  1.0150000e+000
  9.2400000e-001
  1.0380000e+000
  1.0840000e+000
  9.4100000e-001
  9.9100000e-001
  1.1140000e+000
  1.0200000e+000
  9.8500000e-001
  1.1110000e+000
  1.0840000e+000
  9.7500000e-001
  1.1020000e+000
  1.1490000e+000
  9.9600000e-001
  1.0470000e+000
  1.1550000e+000
  1.0440000e+000
  9.9700000e-001
  1.1330000e+000
  1.1040000e+000
  9.8100000e-001
  1.0950000e+000
  1.1260000e+000
  9.6100000e-001
  1.0530000e+000
  1.1840000e+000
  1.0570000e+000
  1.0270000e+000
  1.1810000e+000
  1.1210000e+000
  1.0050000e+000
  1.1360000e+000
  1.1790000e+000
  1.0010000e+000
  1.0500000e+000
  1.1770000e+000
  1.0560000e+000
  1.0230000e+000
  1.1640000e+000
  1.1040000e+000
  9.9700000e-001
  1.1320000e+000
  1.1730000e+000
  1.0080000e+000
  1.0780000e+000
  1.1780000e+000
  1.0570000e+000
  1.0280000e+000
  1.1560000e+000
  1.0990000e+000
  1.0030000e+000
  1.1510000e+000
  1.1970000e+000
  1.0250000e+000
  1.0810000e+000
  1.1920000e+000
  1.0690000e+000
  1.0220000e+000
  1.1460000e+000
  1.1270000e+000
  1.0150000e+000
  1.1370000e+000
  1.2070000e+000
  1.0600000e+000
  1.1270000e+000
  1.2370000e+000
  1.1000000e+000
  1.0710000e+000
  1.2520000e+000
  1.1880000e+000
  1.0330000e+000
  1.1810000e+000
  1.2450000e+000
  1.0810000e+000
  1.1390000e+000
  1.2450000e+000
  1.1040000e+000
  1.0650000e+000
  1.2030000e+000
  1.1270000e+000
  1.0030000e+000
  1.1170000e+000
  1.1370000e+000
  9.8000000e-001
  1.0310000e+000
  1.1270000e+000
  1.0110000e+000
  9.9100000e-001
  1.1390000e+000
  1.0740000e+000
  9.5000000e-001
  1.0950000e+000
  1.1920000e+000
  1.0930000e+000
  1.3400000e+000
  1.7020000e+000
  1.6980000e+000
  1.7750000e+000
  1.9690000e+000
  1.7190000e+000
  1.2230000e+000
  1.1420000e+000
  1.0980000e+000
  9.3800000e-001
  9.6900000e-001
  1.0370000e+000
  9.5200000e-001
  9.2600000e-001
  1.0360000e+000
  9.9200000e-001
  8.9600000e-001
  1.0090000e+000
  1.0550000e+000
  9.4000000e-001
  9.9600000e-001
  1.0830000e+000
  9.9100000e-001
  9.7600000e-001
  1.1080000e+000
  1.0700000e+000
  9.6700000e-001
  1.0900000e+000
  1.1400000e+000
  1.0050000e+000
  1.0640000e+000
  1.1730000e+000
  1.0550000e+000
  1.0200000e+000
  1.1810000e+000
  1.1610000e+000
  1.0340000e+000
  1.1560000e+000
  1.2250000e+000
  1.0550000e+000
  1.1260000e+000
  1.2770000e+000
  1.1250000e+000
  1.1030000e+000
  1.3310000e+000
  1.2860000e+000
  1.1040000e+000
  1.3080000e+000
  1.3690000e+000
  1.1450000e+000
  1.2340000e+000
  1.3680000e+000
  1.1810000e+000
  1.1270000e+000
  1.2870000e+000
  1.2050000e+000
  1.0420000e+000
  1.1400000e+000
  1.1510000e+000
  9.8500000e-001
  1.0180000e+000
  1.0900000e+000
  9.6100000e-001
  9.2200000e-001
  1.0250000e+000
  9.9400000e-001
  8.8900000e-001
  9.7600000e-001
  9.9400000e-001
  8.7400000e-001
  9.3600000e-001
  1.0290000e+000
  9.3600000e-001
  9.1000000e-001
  1.0030000e+000
  9.8600000e-001
  9.0500000e-001
  1.0200000e+000
  1.0670000e+000
  9.5500000e-001
  1.0160000e+000
  1.1070000e+000
  9.9700000e-001
  9.7100000e-001
  1.0890000e+000
  1.0410000e+000
  9.5500000e-001
  1.0810000e+000
  1.1140000e+000
  9.8000000e-001
  1.0530000e+000
  1.1490000e+000
  1.0230000e+000
  1.0010000e+000
  1.1280000e+000
  1.0830000e+000
  9.7700000e-001
  1.0980000e+000
  1.1400000e+000
  9.9400000e-001
  1.0330000e+000
  1.1220000e+000
  1.0420000e+000
  1.0150000e+000
  1.1300000e+000
  1.0780000e+000
  9.7600000e-001
  1.1120000e+000
  1.1610000e+000
  1.0060000e+000
  1.0610000e+000
  1.1540000e+000
  1.0320000e+000
  1.0060000e+000
  1.1450000e+000
  1.0940000e+000
  9.9000000e-001
  1.1390000e+000
  1.1810000e+000
  1.0050000e+000
  1.0620000e+000
  1.1700000e+000
  1.0560000e+000
  1.0270000e+000
  1.1670000e+000
  1.1270000e+000
  9.9700000e-001
  1.1000000e+000
  1.1610000e+000
  1.0090000e+000
  1.0830000e+000
  1.2560000e+000
  1.1120000e+000
  1.0620000e+000
  1.2280000e+000
  1.1610000e+000
  1.0250000e+000
  1.1890000e+000
  1.2480000e+000
  1.0600000e+000
  1.1630000e+000
  1.3260000e+000
  1.1400000e+000
  1.0650000e+000
  1.1700000e+000
  1.1250000e+000
  1.0040000e+000
  1.1260000e+000
  1.1400000e+000
  9.8100000e-001
  1.0470000e+000
  1.1530000e+000
  1.0240000e+000
  9.9700000e-001
  1.1250000e+000
  1.0790000e+000
  9.5700000e-001
  1.0650000e+000
  1.0950000e+000
  9.7700000e-001
  1.1350000e+000
  1.4450000e+000
  1.4820000e+000
  1.6400000e+000
  1.9780000e+000
  1.9650000e+000
  1.6600000e+000
  1.5650000e+000
  1.3100000e+000
  9.7500000e-001
  9.7700000e-001
  1.0340000e+000
  9.1300000e-001
  8.8800000e-001
  1.0080000e+000
  9.6600000e-001
  8.8200000e-001
  9.8600000e-001
  9.9600000e-001
  8.5900000e-001
  9.6100000e-001
  1.0780000e+000
  1.0000000e+000
  9.8500000e-001
  1.0950000e+000
  1.0460000e+000
  9.5200000e-001
  1.0780000e+000
  1.1070000e+000
  9.6400000e-001
  1.0280000e+000
  1.1360000e+000
  1.0440000e+000
  1.0200000e+000
  1.1890000e+000
  1.1320000e+000
  1.0230000e+000
  1.1830000e+000
  1.2370000e+000
  1.0420000e+000
  1.1420000e+000
  1.3090000e+000
  1.1500000e+000
  1.1070000e+000
  1.2820000e+000
  1.2200000e+000
  1.0850000e+000
  1.2810000e+000
  1.3310000e+000
  1.1360000e+000
  1.2310000e+000
  1.3660000e+000
  1.1720000e+000
  1.1170000e+000
  1.2870000e+000
  1.2150000e+000
  1.0530000e+000
  1.1880000e+000
  1.2200000e+000
  1.0090000e+000
  1.0460000e+000
  1.1410000e+000
  9.9900000e-001
  9.5500000e-001
  1.0550000e+000
  1.0010000e+000
  9.0500000e-001
  1.0010000e+000
  1.0240000e+000
  8.9700000e-001
  9.4500000e-001
  1.0290000e+000
  9.3600000e-001
  9.2700000e-001
  1.0430000e+000
  9.9600000e-001
  9.1700000e-001
  1.0340000e+000
  1.0670000e+000
  9.3900000e-001
  9.9900000e-001
  1.1110000e+000
  1.0140000e+000
  9.9200000e-001
  1.1140000e+000
  1.0440000e+000
  9.5800000e-001
  1.0810000e+000
  1.1230000e+000
  9.9000000e-001
  1.0530000e+000
  1.1560000e+000
  1.0420000e+000
  1.0140000e+000
  1.1440000e+000
  1.0950000e+000
  9.9200000e-001
  1.1220000e+000
  1.1450000e+000
  9.9400000e-001
  1.0760000e+000
  1.1820000e+000
  1.0410000e+000
  1.0050000e+000
  1.1360000e+000
  1.0890000e+000
  9.6800000e-001
  1.0890000e+000
  1.1480000e+000
  1.0050000e+000
  1.0700000e+000
  1.1730000e+000
  1.0480000e+000
  1.0500000e+000
  1.2010000e+000
  1.1140000e+000
  1.0000000e+000
  1.1110000e+000
  1.1600000e+000
  1.0110000e+000
  1.0740000e+000
  1.2090000e+000
  1.0830000e+000
  1.0560000e+000
  1.1870000e+000
  1.1130000e+000
  9.9700000e-001
  1.1460000e+000
  1.2050000e+000
  1.0370000e+000
  1.1020000e+000
  1.1820000e+000
  1.0410000e+000
  1.0330000e+000
  1.1880000e+000
  1.1300000e+000
  9.9200000e-001
  1.1530000e+000
  1.2020000e+000
  1.0280000e+000
  1.1160000e+000
  1.2380000e+000
  1.0800000e+000
  1.0670000e+000
  1.2280000e+000
  1.1460000e+000
  1.0250000e+000
  1.1910000e+000
  1.2470000e+000
  1.0650000e+000
  1.1260000e+000
  1.2370000e+000
  1.0980000e+000
  1.1080000e+000
  1.2770000e+000
  1.1640000e+000
  1.0130000e+000
  1.0970000e+000
  1.1140000e+000
  9.7100000e-001
  1.0470000e+000
  1.1590000e+000
  1.0270000e+000
  9.9100000e-001
  1.1120000e+000
  1.0760000e+000
  9.6900000e-001
  1.0620000e+000
  1.0800000e+000
  1.0000000e+000
  1.2010000e+000
  1.4860000e+000
  1.5570000e+000
  1.7760000e+000
  2.1540000e+000
  2.0750000e+000
  1.6740000e+000
  1.4920000e+000
  1.2100000e+000
  9.4700000e-001
  9.8000000e-001
  1.0480000e+000
  9.1300000e-001
  8.7400000e-001
  9.9700000e-001
  9.6100000e-001
  8.7000000e-001
  9.7700000e-001
  1.0220000e+000
  9.0500000e-001
  9.7100000e-001
  1.0650000e+000
  9.6400000e-001
  9.5300000e-001
  1.0670000e+000
  1.0250000e+000
  9.6300000e-001
  1.0840000e+000
  1.0980000e+000
  9.5900000e-001
  1.0420000e+000
  1.1700000e+000
  1.0420000e+000
  1.0100000e+000
  1.1370000e+000
  1.1080000e+000
  1.0230000e+000
  1.1810000e+000
  1.2150000e+000
  1.0390000e+000
  1.1260000e+000
  1.2710000e+000
  1.1220000e+000
  1.1070000e+000
  1.3190000e+000
  1.2470000e+000
  1.1120000e+000
  1.3010000e+000
  1.3420000e+000
  1.1420000e+000
  1.2530000e+000
  1.3680000e+000
  1.1920000e+000
  1.1670000e+000
  1.3450000e+000
  1.2650000e+000
  1.0880000e+000
  1.1830000e+000
  1.1930000e+000
  1.0110000e+000
  1.0520000e+000
  1.1200000e+000
  9.8900000e-001
  9.5300000e-001
  1.0510000e+000
  9.9500000e-001
  9.0100000e-001
  1.0140000e+000
  1.0280000e+000
  8.7800000e-001
  9.3900000e-001
  1.0220000e+000
  9.3300000e-001
  9.3600000e-001
  1.0470000e+000
  9.9900000e-001
  9.1500000e-001
  1.0280000e+000
  1.0550000e+000
  9.2400000e-001
  1.0030000e+000
  1.0940000e+000
  9.6800000e-001
  9.6200000e-001
  1.0990000e+000
  1.0590000e+000
  9.4000000e-001
  1.0700000e+000
  1.1280000e+000
  9.8200000e-001
  1.0510000e+000
  1.1370000e+000
  9.9900000e-001
  9.8700000e-001
  1.1420000e+000
  1.0830000e+000
  9.8200000e-001
  1.1140000e+000
  1.1260000e+000
  9.7300000e-001
  1.0510000e+000
  1.1630000e+000
  1.0320000e+000
  1.0110000e+000
  1.1530000e+000
  1.1080000e+000
  1.0060000e+000
  1.1280000e+000
  1.1640000e+000
  9.9500000e-001
  1.0720000e+000
  1.1720000e+000
  1.0330000e+000
  1.0140000e+000
  1.1420000e+000
  1.1020000e+000
  1.0140000e+000
  1.1360000e+000
  1.1590000e+000
  9.9900000e-001
  1.0740000e+000
  1.1980000e+000
  1.0560000e+000
  1.0440000e+000
  1.2240000e+000
  1.1420000e+000
  1.0080000e+000
  1.1530000e+000
  1.1820000e+000
  1.0030000e+000
  1.0830000e+000
  1.1890000e+000
  1.0650000e+000
  1.0620000e+000
  1.1950000e+000
  1.1220000e+000
  1.0100000e+000
  1.1610000e+000
  1.2160000e+000
  1.0380000e+000
  1.1440000e+000
  1.2660000e+000
  1.0920000e+000
  1.0690000e+000
  1.2160000e+000
  1.1280000e+000
  1.0500000e+000
  1.2560000e+000
  1.2870000e+000
  1.0800000e+000
  1.1870000e+000
  1.3040000e+000
  1.1160000e+000
  1.0970000e+000
  1.2420000e+000
  1.1280000e+000
  1.0050000e+000
  1.1140000e+000
  1.1120000e+000
  9.7100000e-001
  1.0520000e+000
  1.1210000e+000
  1.0040000e+000
  1.0150000e+000
  1.1280000e+000
  1.0650000e+000
  9.8600000e-001
  1.1070000e+000
  1.1590000e+000
  1.0550000e+000
  1.2960000e+000
  1.6350000e+000
  1.6680000e+000
  1.8480000e+000
  2.1420000e+000
  1.9720000e+000
  1.5070000e+000
  1.3520000e+000
  1.1410000e+000
  9.1900000e-001
  9.4500000e-001
  1.0010000e+000
  9.1000000e-001
  9.0200000e-001
  1.0200000e+000
  9.7300000e-001
  8.9100000e-001
  9.9700000e-001
  1.0080000e+000
  8.8900000e-001
  9.5500000e-001
  1.0470000e+000
  9.5700000e-001
  9.6300000e-001
  1.0860000e+000
  1.0250000e+000
  9.4000000e-001
  1.0750000e+000
  1.1160000e+000
  9.6200000e-001
  1.0290000e+000
  1.1320000e+000
  1.0280000e+000
  1.0240000e+000
  1.1650000e+000
  1.1120000e+000
  1.0160000e+000
  1.1500000e+000
  1.1840000e+000
  1.0360000e+000
  1.1330000e+000
  1.2730000e+000
  1.1210000e+000
  1.1250000e+000
  1.3270000e+000
  1.2430000e+000
  1.1220000e+000
  1.2870000e+000
  1.3270000e+000
  1.1320000e+000
  1.2520000e+000
  1.3800000e+000
  1.1920000e+000
  1.1580000e+000
  1.3140000e+000
  1.1720000e+000
  1.0180000e+000
  1.1780000e+000
  1.1920000e+000
  9.9200000e-001
  1.0430000e+000
  1.1110000e+000
  9.6300000e-001
  9.3300000e-001
  1.0370000e+000
  9.8200000e-001
  8.8200000e-001
  9.9400000e-001
  1.0130000e+000
  8.8500000e-001
  9.5000000e-001
  1.0440000e+000
  9.4100000e-001
  9.3300000e-001
  1.0250000e+000
  9.8600000e-001
  9.2500000e-001
  1.0500000e+000
  1.0600000e+000
  9.2900000e-001
  1.0060000e+000
  1.0840000e+000
  9.7600000e-001
  9.7100000e-001
  1.0790000e+000
  1.0360000e+000
  9.6400000e-001
  1.0980000e+000
  1.1130000e+000
  9.7200000e-001
  1.0650000e+000
  1.1580000e+000
  1.0160000e+000
  1.0040000e+000
  1.1230000e+000
  1.0800000e+000
  9.8500000e-001
  1.1130000e+000
  1.1200000e+000
  9.7700000e-001
  1.0670000e+000
  1.1640000e+000
  1.0270000e+000
  1.0290000e+000
  1.1640000e+000
  1.0990000e+000
  9.9700000e-001
  1.1250000e+000
  1.1530000e+000
  1.0080000e+000
  1.0920000e+000
  1.1910000e+000
  1.0430000e+000
  1.0230000e+000
  1.1410000e+000
  1.0980000e+000
  1.0080000e+000
  1.1410000e+000
  1.1610000e+000
  9.9500000e-001
  1.0890000e+000
  1.1930000e+000
  1.0500000e+000
  1.0470000e+000
  1.1810000e+000
  1.0830000e+000
  9.8000000e-001
  1.1420000e+000
  1.1950000e+000
  1.0250000e+000
  1.0950000e+000
  1.2050000e+000
  1.0610000e+000
  1.0480000e+000
  1.1880000e+000
  1.1390000e+000
  1.0340000e+000
  1.1680000e+000
  1.2260000e+000
  1.0410000e+000
  1.1550000e+000
  1.3080000e+000
  1.1280000e+000
  1.1260000e+000
  1.2980000e+000
  1.2010000e+000
  1.0700000e+000
  1.2330000e+000
  1.2350000e+000
  1.0250000e+000
  1.0930000e+000
  1.2030000e+000
  1.0570000e+000
  1.0290000e+000
  1.1410000e+000
  1.0850000e+000
  9.9400000e-001
  1.1050000e+000
  1.1050000e+000
  9.6800000e-001
  1.0700000e+000
  1.1730000e+000
  9.9900000e-001
  9.8200000e-001
  1.1300000e+000
  1.1280000e+000
  1.1170000e+000
  1.4440000e+000
  1.6790000e+000
  1.6590000e+000
  1.8780000e+000
  1.9390000e+000
  1.5160000e+000
  1.2370000e+000
  1.2110000e+000
  1.0140000e+000
  8.9900000e-001
  1.0150000e+000
  1.0290000e+000
  9.0100000e-001
  9.7200000e-001
  1.0310000e+000
  8.9700000e-001
  9.1200000e-001
  1.0340000e+000
  9.8100000e-001
  9.0200000e-001
  1.0280000e+000
  1.0740000e+000
  9.5700000e-001
  1.0330000e+000
  1.1270000e+000
  1.0060000e+000
  9.9100000e-001
  1.0990000e+000
  1.0430000e+000
  9.7500000e-001
  1.1250000e+000
  1.1650000e+000
  1.0230000e+000
  1.1210000e+000
  1.1810000e+000
  1.0320000e+000
  1.0570000e+000
  1.2490000e+000
  1.1780000e+000
  1.0570000e+000
  1.2170000e+000
  1.2660000e+000
  1.0920000e+000
  1.2070000e+000
  1.3400000e+000
  1.1760000e+000
  1.1890000e+000
  1.3690000e+000
  1.2590000e+000
  1.1530000e+000
  1.3380000e+000
  1.3410000e+000
  1.1320000e+000
  1.2450000e+000
  1.3550000e+000
  1.1270000e+000
  1.0840000e+000
  1.1880000e+000
  1.0890000e+000
  9.8000000e-001
  1.0800000e+000
  1.0660000e+000
  9.1600000e-001
  9.7800000e-001
  1.0320000e+000
  9.1200000e-001
  9.1300000e-001
  1.0360000e+000
  9.8700000e-001
  8.9900000e-001
  9.9600000e-001
  9.9700000e-001
  8.9200000e-001
  9.8500000e-001
  1.0650000e+000
  9.5700000e-001
  9.6100000e-001
  1.0620000e+000
  9.9100000e-001
  9.1000000e-001
  1.0620000e+000
  1.0980000e+000
  9.5300000e-001
  1.0240000e+000
  1.1000000e+000
  9.9200000e-001
  1.0030000e+000
  1.1200000e+000
  1.0520000e+000
  9.7600000e-001
  1.1110000e+000
  1.1200000e+000
  9.6700000e-001
  1.0600000e+000
  1.1640000e+000
  1.0200000e+000
  1.0130000e+000
  1.1560000e+000
  1.0860000e+000
  9.7500000e-001
  1.0860000e+000
  1.1210000e+000
  9.8500000e-001
  1.0780000e+000
  1.1630000e+000
  1.0060000e+000
  1.0110000e+000
  1.1670000e+000
  1.1000000e+000
  1.0090000e+000
  1.1480000e+000
  1.1270000e+000
  9.7200000e-001
  1.0750000e+000
  1.1760000e+000
  1.0290000e+000
  1.0390000e+000
  1.1480000e+000
  1.0650000e+000
  9.9400000e-001
  1.1610000e+000
  1.1720000e+000
  1.0240000e+000
  1.1360000e+000
  1.2330000e+000
  1.0440000e+000
  1.0440000e+000
  1.2440000e+000
  1.1740000e+000
  1.0480000e+000
  1.2110000e+000
  1.2390000e+000
  1.0380000e+000
  1.1530000e+000
  1.2800000e+000
  1.0920000e+000
  1.0570000e+000
  1.1960000e+000
  1.0940000e+000
  9.8100000e-001
  1.0790000e+000
  1.1040000e+000
  9.8100000e-001
  1.0850000e+000
  1.1590000e+000
  1.0000000e+000
  1.0030000e+000
  1.1130000e+000
  1.0500000e+000
  9.7600000e-001
  1.1370000e+000
  1.2100000e+000
  1.1440000e+000
  1.5190000e+000
  1.8370000e+000
  1.7680000e+000
  1.8240000e+000
  1.8960000e+000
  1.4990000e+000
  1.0950000e+000
  1.0850000e+000
  1.0320000e+000
  9.0100000e-001
  9.8900000e-001
  1.0510000e+000
  9.2700000e-001
  9.4500000e-001
  1.0480000e+000
  9.8300000e-001
  9.0200000e-001
  1.0040000e+000
  1.0330000e+000
  9.2600000e-001
  1.0080000e+000
  1.0800000e+000
  9.5700000e-001
  9.7600000e-001
  1.0920000e+000
  1.0370000e+000
  9.7700000e-001
  1.0850000e+000
  1.0840000e+000
  9.7700000e-001
  1.0860000e+000
  1.1910000e+000
  1.0420000e+000
  1.0280000e+000
  1.1960000e+000
  1.1490000e+000
  1.0420000e+000
  1.2050000e+000
  1.2280000e+000
  1.0610000e+000
  1.1770000e+000
  1.2940000e+000
  1.1400000e+000
  1.1700000e+000
  1.3780000e+000
  1.2620000e+000
  1.1000000e+000
  1.3200000e+000
  1.3710000e+000
  1.1370000e+000
  1.2340000e+000
  1.3380000e+000
  1.1270000e+000
  1.1200000e+000
  1.2770000e+000
  1.1540000e+000
  1.0340000e+000
  1.1450000e+000
  1.0970000e+000
  9.3400000e-001
  1.0060000e+000
  1.0690000e+000
  9.3500000e-001
  9.2900000e-001
  1.0390000e+000
  9.6700000e-001
  8.8500000e-001
  9.9400000e-001
  9.9900000e-001
  8.8000000e-001
  9.8000000e-001
  1.0650000e+000
  9.5000000e-001
  9.5500000e-001
  1.0660000e+000
  1.0080000e+000
  9.2900000e-001
  1.0520000e+000
  1.0670000e+000
  9.3600000e-001
  1.0310000e+000
  1.1170000e+000
  9.9400000e-001
  9.9700000e-001
  1.1130000e+000
  1.0520000e+000
  9.9200000e-001
  1.1630000e+000
  1.1610000e+000
  1.0000000e+000
  1.0950000e+000
  1.1580000e+000
  1.0100000e+000
  1.0240000e+000
  1.1550000e+000
  1.0700000e+000
  9.7800000e-001
  1.0930000e+000
  1.0890000e+000
  9.6600000e-001
  1.0720000e+000
  1.1980000e+000
  1.0470000e+000
  1.0700000e+000
  1.2030000e+000
  1.0950000e+000
  1.0030000e+000
  1.1300000e+000
  1.1370000e+000
  1.0010000e+000
  1.0880000e+000
  1.1580000e+000
  1.0280000e+000
  1.0510000e+000
  1.1610000e+000
  1.0670000e+000
  9.9600000e-001
  1.1410000e+000
  1.1420000e+000
  9.9600000e-001
  1.0990000e+000
  1.2120000e+000
  1.0560000e+000
  1.0660000e+000
  1.1890000e+000
  1.1080000e+000
  1.0160000e+000
  1.1490000e+000
  1.1480000e+000
  9.9700000e-001
  1.0850000e+000
  1.2380000e+000
  1.0790000e+000
  1.0830000e+000
  1.2580000e+000
  1.1680000e+000
  1.0550000e+000
  1.1870000e+000
  1.1840000e+000
  1.0390000e+000
  1.1830000e+000
  1.2570000e+000
  1.0750000e+000
  1.1040000e+000
  1.2980000e+000
  1.1810000e+000
  1.0560000e+000
  1.2090000e+000
  1.2090000e+000
  1.0140000e+000
  1.0850000e+000
  1.1640000e+000
  1.0160000e+000
  1.0310000e+000
  1.1650000e+000
  1.0760000e+000
  9.8700000e-001
  1.1030000e+000
  1.0850000e+000
  9.6700000e-001
  1.0620000e+000
  1.1360000e+000
  1.0550000e+000
  1.2260000e+000
  1.6130000e+000
  1.7540000e+000
  1.8410000e+000
  2.1380000e+000
  2.0700000e+000
  1.5830000e+000
  1.3800000e+000
  1.2140000e+000
  9.4700000e-001
  9.2000000e-001
  1.0140000e+000
  9.5400000e-001
  8.8000000e-001
  9.7300000e-001
  9.8100000e-001
  8.7300000e-001
  9.4800000e-001
  1.0280000e+000
  9.2700000e-001
  9.4300000e-001
  1.0420000e+000
  9.6600000e-001
  8.9800000e-001
  1.0230000e+000
  1.0460000e+000
  9.3600000e-001
  1.0230000e+000
  1.0810000e+000
  9.6700000e-001
  9.9400000e-001
  1.1070000e+000
  1.0430000e+000
  9.9200000e-001
  1.1180000e+000
  1.0850000e+000
  9.8300000e-001
  1.1370000e+000
  1.2680000e+000
  1.1020000e+000
  1.1410000e+000
  1.3070000e+000
  1.2050000e+000
  1.1040000e+000
  1.2800000e+000
  1.2770000e+000
  1.1030000e+000
  1.2450000e+000
  1.3590000e+000
  1.1820000e+000
  1.2260000e+000
  1.4030000e+000
  1.2630000e+000
  1.1250000e+000
  1.3090000e+000
  1.2870000e+000
  1.0430000e+000
  1.1200000e+000
  1.2090000e+000
  1.0340000e+000
  1.0140000e+000
  1.0760000e+000
  9.8700000e-001
  9.3000000e-001
  1.0520000e+000
  1.0280000e+000
  8.8800000e-001
  9.6800000e-001
  1.0270000e+000
  9.1500000e-001
  9.3000000e-001
  1.0410000e+000
  9.8700000e-001
  9.2000000e-001
  1.0190000e+000
  1.0130000e+000
  8.9900000e-001
  1.0000000e+000
  1.0880000e+000
  9.6600000e-001
  9.7500000e-001
  1.0850000e+000
  1.0100000e+000
  9.4300000e-001
  1.0780000e+000
  1.0710000e+000
  9.4400000e-001
  1.0390000e+000
  1.1230000e+000
  1.0000000e+000
  1.0060000e+000
  1.1080000e+000
  1.0410000e+000
  9.8100000e-001
  1.1160000e+000
  1.1260000e+000
  9.9000000e-001
  1.0860000e+000
  1.1610000e+000
  1.0110000e+000
  1.0230000e+000
  1.1230000e+000
  1.0510000e+000
  9.9100000e-001
  1.1330000e+000
  1.1120000e+000
  9.7100000e-001
  1.0890000e+000
  1.1510000e+000
  1.0080000e+000
  1.0390000e+000
  1.1870000e+000
  1.1020000e+000
  1.0200000e+000
  1.1450000e+000
  1.1330000e+000
  9.9400000e-001
  1.1130000e+000
  1.1930000e+000
  1.0140000e+000
  1.0470000e+000
  1.2060000e+000
  1.1050000e+000
  1.0150000e+000
  1.1700000e+000
  1.1770000e+000
  1.0190000e+000
  1.1230000e+000
  1.2210000e+000
  1.0590000e+000
  1.0640000e+000
  1.1760000e+000
  1.0890000e+000
  1.0330000e+000
  1.1870000e+000
  1.1630000e+000
  1.0220000e+000
  1.1420000e+000
  1.2370000e+000
  1.0590000e+000
  1.0480000e+000
  1.1540000e+000
  1.0920000e+000
  1.0440000e+000
  1.2120000e+000
  1.2100000e+000
  1.0460000e+000
  1.1460000e+000
  1.2150000e+000
  1.0640000e+000
  1.1140000e+000
  1.2800000e+000
  1.1790000e+000
  1.0840000e+000
  1.2710000e+000
  1.2520000e+000
  1.0560000e+000
  1.1810000e+000
  1.2870000e+000
  1.0800000e+000
  1.0610000e+000
  1.1480000e+000
  1.0500000e+000
  9.7200000e-001
  1.1090000e+000
  1.1200000e+000
  9.6700000e-001
  1.0380000e+000
  1.1300000e+000
  1.0040000e+000
  1.0280000e+000
  1.1180000e+000
  1.0130000e+000
  9.8500000e-001
  1.1970000e+000
  1.3190000e+000
  1.2990000e+000
  1.6730000e+000
  1.9770000e+000
  1.9040000e+000
  1.9300000e+000
  1.9150000e+000
  1.4430000e+000
  1.0610000e+000
  1.0560000e+000
  1.0060000e+000
  8.6800000e-001
  9.5500000e-001
  1.0090000e+000
  8.9400000e-001
  9.2500000e-001
  1.0320000e+000
  9.5300000e-001
  8.8900000e-001
  1.0060000e+000
  1.0130000e+000
  9.0800000e-001
  9.9700000e-001
  1.0430000e+000
  9.2600000e-001
  9.6700000e-001
  1.1030000e+000
  1.0360000e+000
  9.5900000e-001
  1.0790000e+000
  1.0950000e+000
  9.7100000e-001
  1.0690000e+000
  1.1640000e+000
  1.0200000e+000
  1.0640000e+000
  1.2190000e+000
  1.1090000e+000
  1.0340000e+000
  1.2150000e+000
  1.2090000e+000
  1.0280000e+000
  1.1860000e+000
  1.3150000e+000
  1.1050000e+000
  1.1730000e+000
  1.3900000e+000
  1.2510000e+000
  1.1460000e+000
  1.3560000e+000
  1.3460000e+000
  1.1140000e+000
  1.2610000e+000
  1.3700000e+000
  1.1270000e+000
  1.1300000e+000
  1.2820000e+000
  1.1480000e+000
  1.0340000e+000
  1.1510000e+000
  1.0970000e+000
  9.3900000e-001
  1.0270000e+000
  1.0690000e+000
  9.2200000e-001
  9.3900000e-001
  1.0340000e+000
  9.4500000e-001
  8.9200000e-001
  1.0060000e+000
  9.8300000e-001
  8.5500000e-001
  9.6100000e-001
  1.0370000e+000
  9.2700000e-001
  9.4700000e-001
  1.0560000e+000
  9.9100000e-001
  9.3100000e-001
  1.0390000e+000
  1.0410000e+000
  9.3000000e-001
  1.0190000e+000
  1.0750000e+000
  9.6800000e-001
  1.0180000e+000
  1.1310000e+000
  1.0410000e+000
  9.7100000e-001
  1.0710000e+000
  1.0850000e+000
  9.8700000e-001
  1.0950000e+000
  1.1530000e+000
  1.0000000e+000
  1.0220000e+000
  1.1350000e+000
  1.0430000e+000
  9.8300000e-001
  1.1330000e+000
  1.1270000e+000
  9.8200000e-001
  1.0880000e+000
  1.1460000e+000
  1.0000000e+000
  1.0410000e+000
  1.1780000e+000
  1.0720000e+000
  9.9500000e-001
  1.1320000e+000
  1.1090000e+000
  9.7600000e-001
  1.0940000e+000
  1.1760000e+000
  1.0080000e+000
  1.0500000e+000
  1.1950000e+000
  1.0830000e+000
  1.0100000e+000
  1.1550000e+000
  1.1350000e+000
  9.9700000e-001
  1.1320000e+000
  1.2090000e+000
  1.0370000e+000
  1.0660000e+000
  1.1730000e+000
  1.0700000e+000
  1.0040000e+000
  1.1410000e+000
  1.1490000e+000
  1.0160000e+000
  1.1420000e+000
  1.2420000e+000
  1.0470000e+000
  1.0710000e+000
  1.1950000e+000
  1.0880000e+000
  1.0130000e+000
  1.1730000e+000
  1.1530000e+000
  9.9500000e-001
  1.0920000e+000
  1.1890000e+000
  1.0360000e+000
  1.0710000e+000
  1.2380000e+000
  1.1260000e+000
  1.0510000e+000
  1.2430000e+000
  1.2190000e+000
  1.0520000e+000
  1.1730000e+000
  1.2350000e+000
  1.0420000e+000
  1.0590000e+000
  1.2440000e+000
  1.1590000e+000
  1.0790000e+000
  1.2490000e+000
  1.2380000e+000
  1.0640000e+000
  1.2100000e+000
  1.2990000e+000
  1.0830000e+000
  1.1090000e+000
  1.2120000e+000
  1.0650000e+000
  9.8000000e-001
  1.1330000e+000
  1.1500000e+000
  9.9000000e-001
  1.0740000e+000
  1.1450000e+000
  9.9700000e-001
  1.0110000e+000
  1.1330000e+000
  1.0240000e+000
  9.7800000e-001
  1.1180000e+000
  1.1440000e+000
  1.0340000e+000
  1.2760000e+000
  1.6450000e+000
  1.6750000e+000
  1.9170000e+000
  2.1740000e+000
  1.9260000e+000
  1.5140000e+000
  1.3510000e+000
  1.0900000e+000
  9.0600000e-001
  9.9500000e-001
  1.0410000e+000
  9.0500000e-001
  9.1600000e-001
  1.0050000e+000
  9.4300000e-001
  9.1100000e-001
  1.0320000e+000
  1.0130000e+000
  8.9700000e-001
  9.9900000e-001
  1.0840000e+000
  9.5900000e-001
  9.7200000e-001
  1.0860000e+000
  1.0180000e+000
  9.6400000e-001
  1.0700000e+000
  1.0810000e+000
  9.7100000e-001
  1.0840000e+000
  1.1600000e+000
  1.0110000e+000
  1.0410000e+000
  1.1650000e+000
  1.0850000e+000
  1.0080000e+000
  1.1600000e+000
  1.1910000e+000
  1.0440000e+000
  1.1830000e+000
  1.2840000e+000
  1.1120000e+000
  1.1320000e+000
  1.3120000e+000
  1.2200000e+000
  1.1370000e+000
  1.3360000e+000
  1.3240000e+000
  1.1090000e+000
  1.2570000e+000
  1.3890000e+000
  1.1830000e+000
  1.2240000e+000
  1.3270000e+000
  1.1400000e+000
  1.0460000e+000
  1.1950000e+000
  1.1420000e+000
  9.8300000e-001
  1.0670000e+000
  1.0970000e+000
  9.3100000e-001
  9.4900000e-001
  1.0360000e+000
  9.3500000e-001
  8.6000000e-001
  9.9400000e-001
  9.9700000e-001
  8.7900000e-001
  9.5500000e-001
  9.9500000e-001
  8.8900000e-001
  9.3100000e-001
  1.0440000e+000
  9.7700000e-001
  9.1700000e-001
  1.0320000e+000
  1.0290000e+000
  9.2000000e-001
  1.0000000e+000
  1.0720000e+000
  9.5900000e-001
  9.7600000e-001
  1.0750000e+000
  1.0240000e+000
  9.8000000e-001
  1.1160000e+000
  1.1040000e+000
  9.8200000e-001
  1.0780000e+000
  1.1230000e+000
  9.8100000e-001
  1.0040000e+000
  1.0970000e+000
  1.0090000e+000
  9.8000000e-001
  1.1280000e+000
  1.0930000e+000
  9.4500000e-001
  1.0790000e+000
  1.1830000e+000
  1.0150000e+000
  1.0470000e+000
  1.1550000e+000
  1.0460000e+000
  9.8900000e-001
  1.1280000e+000
  1.0980000e+000
  9.6900000e-001
  1.1040000e+000
  1.1730000e+000
  1.0200000e+000
  1.0480000e+000
  1.1500000e+000
  1.0550000e+000
  1.0060000e+000
  1.1360000e+000
  1.0890000e+000
  9.5200000e-001
  1.0800000e+000
  1.1890000e+000
  1.0370000e+000
  1.0600000e+000
  1.1590000e+000
  1.0720000e+000
  1.0190000e+000
  1.1580000e+000
  1.1410000e+000
  1.0050000e+000
  1.1180000e+000
  1.1760000e+000
  9.9900000e-001
  1.0550000e+000
  1.2200000e+000
  1.1000000e+000
  1.0240000e+000
  1.1700000e+000
  1.1980000e+000
  1.0480000e+000
  1.1790000e+000
  1.2470000e+000
  1.0700000e+000
  1.1140000e+000
  1.2660000e+000
  1.1300000e+000
  1.0530000e+000
  1.2000000e+000
  1.1790000e+000
  1.0440000e+000
  1.2030000e+000
  1.2540000e+000
  1.0560000e+000
  1.1120000e+000
  1.2800000e+000
  1.1440000e+000
  1.0330000e+000
  1.1400000e+000
  1.1280000e+000
  9.8700000e-001
  1.0660000e+000
  1.1310000e+000
  9.9200000e-001
  1.0280000e+000
  1.1360000e+000
  1.0220000e+000
  9.6600000e-001
  1.1030000e+000
  1.0920000e+000
  9.8100000e-001
  1.1680000e+000
  1.4170000e+000
  1.4250000e+000
  1.7050000e+000
  1.9910000e+000
  1.8190000e+000
  1.5650000e+000
  1.4950000e+000
  1.2100000e+000
  9.4300000e-001
  9.9700000e-001
  1.0370000e+000
  9.0700000e-001
  9.4300000e-001
  1.0380000e+000
  9.4300000e-001
  9.1100000e-001
  1.0560000e+000
  1.0380000e+000
  9.1600000e-001
  1.0250000e+000
  1.0740000e+000
  9.4500000e-001
  9.9000000e-001
  1.1090000e+000
  1.0270000e+000
  9.7200000e-001
  1.0970000e+000
  1.1040000e+000
  9.7600000e-001
  1.0800000e+000
  1.1500000e+000
  1.0060000e+000
  1.0650000e+000
  1.2110000e+000
  1.0900000e+000
  1.0270000e+000
  1.1770000e+000
  1.2000000e+000
  1.0530000e+000
  1.1960000e+000
  1.2850000e+000
  1.0940000e+000
  1.1610000e+000
  1.3400000e+000
  1.2060000e+000
  1.1170000e+000
  1.3190000e+000
  1.3220000e+000
  1.1440000e+000
  1.3330000e+000
  1.4040000e+000
  1.1460000e+000
  1.1950000e+000
  1.3480000e+000
  1.1740000e+000
  1.0840000e+000
  1.2250000e+000
  1.1700000e+000
  9.9600000e-001
  1.0760000e+000
  1.1000000e+000
  9.3800000e-001
  9.5500000e-001
  1.0380000e+000
  9.6300000e-001
  9.1000000e-001
  1.0160000e+000
  9.9400000e-001
  8.8200000e-001
  9.9100000e-001
  1.0340000e+000
  9.0300000e-001
  9.4300000e-001
  1.0320000e+000
  9.4800000e-001
  9.1600000e-001
  1.0500000e+000
  1.0430000e+000
  9.2200000e-001
  1.0220000e+000
  1.0780000e+000
  9.4900000e-001
  9.8700000e-001
  1.0900000e+000
  1.0090000e+000
  9.6800000e-001
  1.1040000e+000
  1.0950000e+000
  9.7100000e-001
  1.0670000e+000
  1.1030000e+000
  9.9100000e-001
  1.0480000e+000
  1.1590000e+000
  1.0500000e+000
  9.8900000e-001
  1.1280000e+000
  1.1130000e+000
  9.8500000e-001
  1.1030000e+000
  1.1580000e+000
  9.8900000e-001
  1.0360000e+000
  1.1510000e+000
  1.0390000e+000
  9.9000000e-001
  1.1180000e+000
  1.0850000e+000
  9.7100000e-001
  1.0970000e+000
  1.1610000e+000
  9.9200000e-001
  1.0160000e+000
  1.1590000e+000
  1.0710000e+000
  1.0190000e+000
  1.1790000e+000
  1.1510000e+000
  1.0090000e+000
  1.1250000e+000
  1.1690000e+000
  1.0050000e+000
  1.0620000e+000
  1.2090000e+000
  1.0760000e+000
  1.0090000e+000
  1.1360000e+000
  1.1170000e+000
  9.9900000e-001
  1.1410000e+000
  1.2170000e+000
  1.0360000e+000
  1.0800000e+000
  1.2140000e+000
  1.0880000e+000
  1.0290000e+000
  1.1890000e+000
  1.1640000e+000
  1.0270000e+000
  1.1610000e+000
  1.2330000e+000
  1.0480000e+000
  1.0970000e+000
  1.2420000e+000
  1.0980000e+000
  1.0330000e+000
  1.2310000e+000
  1.2370000e+000
  1.0660000e+000
  1.1930000e+000
  1.2390000e+000
  1.0520000e+000
  1.1260000e+000
  1.2950000e+000
  1.1580000e+000
  1.0740000e+000
  1.1840000e+000
  1.1270000e+000
  9.8600000e-001
  1.0900000e+000
  1.1530000e+000
  9.9400000e-001
  1.0200000e+000
  1.1450000e+000
  1.0510000e+000
  9.9700000e-001
  1.1220000e+000
  1.0800000e+000
  9.6700000e-001
  1.1030000e+000
  1.1950000e+000
  1.0940000e+000
  1.3280000e+000
  1.7170000e+000
  1.7990000e+000
  1.8810000e+000
  2.0840000e+000
  1.8610000e+000
  1.3360000e+000
  1.2020000e+000
  1.1160000e+000
  9.3300000e-001
  9.4700000e-001
  1.0320000e+000
  9.4300000e-001
  8.9300000e-001
  1.0110000e+000
  9.9100000e-001
  8.8200000e-001
  9.7700000e-001
  1.0250000e+000
  9.0800000e-001
  9.5200000e-001
  1.0690000e+000
  9.8700000e-001
  9.5400000e-001
  1.0760000e+000
  1.0590000e+000
  9.4900000e-001
  1.0410000e+000
  1.1000000e+000
  9.7500000e-001
  1.0320000e+000
  1.1400000e+000
  1.0370000e+000
  1.0050000e+000
  1.1400000e+000
  1.1210000e+000
  1.0140000e+000
  1.1390000e+000
  1.2070000e+000
  1.0670000e+000
  1.1400000e+000
  1.2910000e+000
  1.1650000e+000
  1.1230000e+000
  1.3360000e+000
  1.2950000e+000
  1.1020000e+000
  1.2620000e+000
  1.3740000e+000
  1.1580000e+000
  1.2380000e+000
  1.3750000e+000
  1.1840000e+000
  1.1130000e+000
  1.2770000e+000
  1.2230000e+000
  1.0520000e+000
  1.1590000e+000
  1.1780000e+000
  9.9000000e-001
  1.0160000e+000
  1.0810000e+000
  9.7600000e-001
  9.2100000e-001
  1.0230000e+000
  9.9200000e-001
  8.7900000e-001
  9.8200000e-001
  1.0200000e+000
  8.9700000e-001
  9.4800000e-001
  1.0290000e+000
  9.2500000e-001
  9.0500000e-001
  1.0440000e+000
  1.0310000e+000
  9.2000000e-001
  1.0190000e+000
  1.0530000e+000
  9.2200000e-001
  9.8000000e-001
  1.1000000e+000
  1.0050000e+000
  9.7500000e-001
  1.1090000e+000
  1.0700000e+000
  9.5200000e-001
  1.0650000e+000
  1.1050000e+000
  9.6900000e-001
  1.0180000e+000
  1.1180000e+000
  1.0310000e+000
  1.0110000e+000
  1.1580000e+000
  1.1180000e+000
  9.8300000e-001
  1.0940000e+000
  1.1440000e+000
  9.9200000e-001
  1.0420000e+000
  1.1590000e+000
  1.0500000e+000
  1.0110000e+000
  1.1580000e+000
  1.1160000e+000
  9.6300000e-001
  1.0830000e+000
  1.1650000e+000
  1.0250000e+000
  1.0860000e+000
  1.1960000e+000
  1.0570000e+000
  1.0040000e+000
  1.1530000e+000
  1.1110000e+000
  1.0060000e+000
  1.1550000e+000
  1.2030000e+000
  1.0130000e+000
  1.0810000e+000
  1.2190000e+000
  1.0850000e+000
  1.0130000e+000
  1.1480000e+000
  1.1280000e+000
  1.0080000e+000
  1.1370000e+000
  1.1930000e+000
  1.0160000e+000
  1.0610000e+000
  1.1790000e+000
  1.0560000e+000
  1.0240000e+000
  1.1880000e+000
  1.1550000e+000
  1.0220000e+000
  1.1490000e+000
  1.2030000e+000
  1.0230000e+000
  1.0900000e+000
  1.2050000e+000
  1.0660000e+000
  1.0370000e+000
  1.1950000e+000
  1.1550000e+000
  1.0240000e+000
  1.1480000e+000
  1.1740000e+000
  1.0110000e+000
  1.1040000e+000
  1.2580000e+000
  1.1210000e+000
  1.0620000e+000
  1.2200000e+000
  1.1840000e+000
  1.0340000e+000
  1.1780000e+000
  1.2390000e+000
  1.0600000e+000
  1.1170000e+000
  1.2590000e+000
  1.1220000e+000
  1.0930000e+000
  1.2820000e+000
  1.2060000e+000
  1.0390000e+000
  1.1330000e+000
  1.1640000e+000
  1.0110000e+000
  1.0710000e+000
  1.1830000e+000
  1.0550000e+000
  9.9900000e-001
  1.1310000e+000
  1.0940000e+000
  9.7600000e-001
  1.0850000e+000
  1.1180000e+000
  9.6400000e-001
  1.0270000e+000
  1.1610000e+000
  1.0860000e+000
  1.1530000e+000
  1.5000000e+000
  1.6330000e+000
  1.7000000e+000
  2.0750000e+000
  2.1410000e+000
  1.7110000e+000
  1.4380000e+000
  1.2520000e+000
  9.9200000e-001
  9.2200000e-001
  1.0190000e+000
  9.7600000e-001
  8.7500000e-001
  9.6700000e-001
  1.0090000e+000
  8.8800000e-001
  9.2500000e-001
  9.9700000e-001
  9.1200000e-001
  9.2000000e-001
  1.0590000e+000
  1.0320000e+000
  9.2000000e-001
  1.0360000e+000
  1.0930000e+000
  9.5800000e-001
  1.0010000e+000
  1.1000000e+000
  1.0060000e+000
  9.9400000e-001
  1.1390000e+000
  1.1160000e+000
  9.8900000e-001
  1.1080000e+000
  1.1590000e+000
  9.9100000e-001
  1.0620000e+000
  1.1920000e+000
  1.0890000e+000
  1.0650000e+000
  1.2610000e+000
  1.2430000e+000
  1.0780000e+000
  1.2490000e+000
  1.3130000e+000
  1.1220000e+000
  1.2330000e+000
  1.4010000e+000
  1.2310000e+000
  1.1580000e+000
  1.3290000e+000
  1.3010000e+000
  1.1410000e+000
  1.2650000e+000
  1.2980000e+000
  1.1030000e+000
  1.1590000e+000
  1.2540000e+000
  1.0710000e+000
  1.0000000e+000
  1.0920000e+000
  1.0390000e+000
  9.1300000e-001
  1.0010000e+000
  1.0180000e+000
  8.7800000e-001
  9.2600000e-001
  1.0410000e+000
  9.4100000e-001
  8.9200000e-001
  1.0000000e+000
  9.8500000e-001
  8.9900000e-001
  1.0000000e+000
  1.0270000e+000
  8.9900000e-001
  9.7200000e-001
  1.0690000e+000
  9.6600000e-001
  9.3300000e-001
  1.0480000e+000
  1.0440000e+000
  9.5300000e-001
  1.0650000e+000
  1.0880000e+000
  9.3800000e-001
  1.0040000e+000
  1.1230000e+000
  1.0130000e+000
  9.7800000e-001
  1.0830000e+000
  1.0550000e+000
  9.4800000e-001
  1.0600000e+000
  1.0940000e+000
  9.7300000e-001
  1.0340000e+000
  1.1490000e+000
  1.0390000e+000
  1.0080000e+000
  1.1490000e+000
  1.1040000e+000
  9.7800000e-001
  1.1000000e+000
  1.1420000e+000
  9.8700000e-001
  1.0340000e+000
  1.1460000e+000
  1.0520000e+000
  1.0250000e+000
  1.1490000e+000
  1.1110000e+000
  9.9500000e-001
  1.1250000e+000
  1.1700000e+000
  1.0000000e+000
  1.0520000e+000
  1.1780000e+000
  1.0590000e+000
  1.0140000e+000
  1.1460000e+000
  1.1000000e+000
  9.8600000e-001
  1.1280000e+000
  1.2100000e+000
  1.0250000e+000
  1.0780000e+000
  1.1930000e+000
  1.0710000e+000
  1.0320000e+000
  1.1820000e+000
  1.1350000e+000
  1.0060000e+000
  1.1450000e+000
  1.1810000e+000
  1.0100000e+000
  1.0700000e+000
  1.1890000e+000
  1.0700000e+000
  1.0520000e+000
  1.2120000e+000
  1.1480000e+000
  1.0130000e+000
  1.1690000e+000
  1.2250000e+000
  1.0370000e+000
  1.0830000e+000
  1.1890000e+000
  1.0750000e+000
  1.0510000e+000
  1.1930000e+000
  1.1450000e+000
  1.0230000e+000
  1.1530000e+000
  1.1980000e+000
  1.0520000e+000
  1.1280000e+000
  1.2630000e+000
  1.1260000e+000
  1.0890000e+000
  1.2630000e+000
  1.2090000e+000
  1.0860000e+000
  1.2440000e+000
  1.2850000e+000
  1.0710000e+000
  1.1230000e+000
  1.2070000e+000
  1.0610000e+000
  1.0180000e+000
  1.1300000e+000
  1.0840000e+000
  9.5300000e-001
  1.0740000e+000
  1.1460000e+000
  1.0000000e+000
  1.0460000e+000
  1.1440000e+000
  1.0270000e+000
  1.0030000e+000
  1.1540000e+000
  1.1390000e+000
  1.0880000e+000
  1.4440000e+000
  1.7210000e+000
  1.7060000e+000
  1.9390000e+000
  2.0680000e+000
  1.7000000e+000
  1.3230000e+000
  1.2390000e+000
  1.0590000e+000
  9.1900000e-001
  1.0050000e+000
  1.0280000e+000
  8.8400000e-001
  9.3000000e-001
  1.0220000e+000
  9.3500000e-001
  9.1500000e-001
  1.0220000e+000
  9.7300000e-001
  9.0100000e-001
  1.0330000e+000
  1.0670000e+000
  9.2700000e-001
  1.0030000e+000
  1.0900000e+000
  9.9200000e-001
  9.6800000e-001
  1.1090000e+000
  1.0890000e+000
  9.8500000e-001
  1.1120000e+000
  1.1670000e+000
  1.0060000e+000
  1.0620000e+000
  1.1440000e+000
  1.0510000e+000
  1.0690000e+000
  1.2340000e+000
  1.1810000e+000
  1.0550000e+000
  1.2470000e+000
  1.3200000e+000
  1.1040000e+000
  1.2110000e+000
  1.3750000e+000
  1.2000000e+000
  1.1420000e+000
  1.3120000e+000
  1.2820000e+000
  1.1320000e+000
  1.2940000e+000
  1.3270000e+000
  1.1230000e+000
  1.2190000e+000
  1.3400000e+000
  1.1490000e+000
  1.0970000e+000
  1.2310000e+000
  1.1320000e+000
  9.8900000e-001
  1.0830000e+000
  1.0850000e+000
  9.3300000e-001
  9.7200000e-001
  1.0460000e+000
  9.3400000e-001
  8.9800000e-001
  1.0250000e+000
  9.8200000e-001
  8.8000000e-001
  9.8700000e-001
  1.0160000e+000
  9.0500000e-001
  9.7300000e-001
  1.0460000e+000
  9.3600000e-001
  9.2200000e-001
  1.0420000e+000
  1.0100000e+000
  9.1700000e-001
  1.0240000e+000
  1.0610000e+000
  9.3100000e-001
  1.0050000e+000
  1.1130000e+000
  1.0130000e+000
  9.8100000e-001
  1.0930000e+000
  1.0510000e+000
  9.6700000e-001
  1.0900000e+000
  1.1280000e+000
